-0.011880315932937105
-0.011715919057896707
-0.011715919057896707
-0.008427981552277738
-0.011715919057896707
-0.01204471280795466
-0.01303109405758035
-0.014510665930480005
-0.012373506557921202
-0.012209109682949346
-0.013195490932438103
-0.006619615920268107
-0.0033316784003593614
-0.0005369315011325149
0.0017646247738856424
0.006038943582560685
-0.0015233127604520752
-0.0033316784003593614
-0.00809918780121062
-0.007112806547456475
-0.010565140931973319
-0.01648342842481519
-0.018949381538148305
-0.018784984664084195
-0.013359887807273055
-0.010236347181503375
-0.01434626905580444
-0.012209109682949346
-0.01007195030623402
-0.011880315932937105
-0.013195490932438103
-0.012209109682949346
-0.012209109682949346
-0.01303109405758035
-0.011880315932937105
-0.011880315932937105
-0.011222728432638288
-0.01204471280795466
-0.012373506557921202
-0.00957875968028829
-0.01500385655437031
-0.0108939346823516
-0.00744160029880004
-0.010236347181503375
-0.013195490932438103
-0.014181872181106114
-0.009743156555626478
-0.0051400440374554865
-0.008427981552277738
-0.008263584676755698
-0.0053044409134160656
-0.009085569054135947
-0.007934790925642525
-0.01303109405758035
-0.012537903432870229
-0.011551522182833437
-0.012209109682949346
-0.012537903432870229
-0.01204471280795466
-0.009414362804927148
-0.01204471280795466
-0.00809918780121062
-0.0108939346823516
-0.010565140931973319
-0.010236347181503375
-0.010400744056749803
-0.010565140931973319
-0.009085569054135947
-0.01007195030623402
-0.011715919057896707
-0.012209109682949346
-0.012209109682949346
-0.013359887807273055
-0.011880315932937105
-0.012702300307796413
-0.010236347181503375
-0.01549704717805614
-0.01631903155041202
-0.011880315932937105
-0.01204471280795466
-0.008921172178705875
-0.01303109405758035
-0.011222728432638288
-0.01549704717805614
-0.012373506557921202
-0.00957875968028829
-0.005633234665267807
-0.00020813774783921823
-0.004153662781205512
0.002093418527834512
0.003901784176233082
0.0019290216508483435
-0.0033316784003593614
-0.006290822168693776
-0.008427981552277738
-0.01303109405758035
-0.01631903155041202
-0.01352428468208522
-0.013688681556874596
-0.013853078431641214
-0.00957875968028829
-0.012702300307796413
-0.012702300307796413
-0.012209109682949346
-0.01483945967976294
-0.012373506557921202
-0.01007195030623402
-0.0161546346759862
-0.011551522182833437
-0.011715919057896707
-0.01204471280795466
-0.011551522182833437
-0.01303109405758035
-0.00727720342313979
-0.011058331557506407
-0.011058331557506407
-0.006619615920268107
-0.010565140931973319
-0.010400744056749803
-0.013195490932438103
-0.012373506557921202
-0.00957875968028829
-0.008921172178705875
-0.008756775303252834
-0.011715919057896707
-0.006290822168693776
-0.009085569054135947
-0.009085569054135947
-0.010565140931973319
-0.010400744056749803
-0.011880315932937105
-0.01204471280795466
-0.0166478252991957
-0.012537903432870229
-0.010236347181503375
-0.010400744056749803
-0.011715919057896707
-0.0108939346823516
-0.014017475306385044
-0.009743156555626478
-0.008921172178705875
-0.009743156555626478
-0.011058331557506407
-0.009907553430941712
-0.007770394050051414
-0.012209109682949346
-0.012537903432870229
-0.012373506557921202
-0.01204471280795466
-0.01483945967976294
-0.012209109682949346
-0.009414362804927148
-0.010236347181503375
-0.011058331557506407
-0.01483945967976294
-0.015168253428954961
-0.010565140931973319
-0.013853078431641214
-0.01566144405257268
-0.011387125307747312
-0.00957875968028829
-0.006619615920268107
-0.003824869028936681
-0.0008657252543323793
0.000449449759027859
0.003901784176233082
0.0001206560055475453
-0.0008657252543323793
-0.006619615920268107
-0.009907553430941712
-0.01500385655437031
-0.016812222173553562
-0.01714101592220138
-0.01533265030351691
-0.013853078431641214
-0.012702300307796413
-0.010400744056749803
-0.012702300307796413
-0.016812222173553562
-0.014181872181106114
-0.014181872181106114
-0.012373506557921202
-0.007605997174437246
-0.014181872181106114
-0.01352428468208522
-0.01500385655437031
-0.00957875968028829
-0.011551522182833437
-0.011222728432638288
-0.011058331557506407
-0.011222728432638288
-0.011058331557506407
-0.008427981552277738
-0.00727720342313979
-0.010236347181503375
-0.010236347181503375
-0.011058331557506407
-0.006619615920268107
-0.008921172178705875
-0.011387125307747312
-0.008921172178705875
-0.009085569054135947
-0.009085569054135947
-0.008921172178705875
-0.012702300307796413
-0.011715919057896707
-0.01204471280795466
-0.012209109682949346
-0.010400744056749803
-0.01204471280795466
-0.014675062805132838
-0.006948409671750096
-0.010565140931973319
-0.010400744056749803
-0.012537903432870229
-0.010236347181503375
-0.010400744056749803
-0.014181872181106114
-0.011058331557506407
-0.011715919057896707
-0.016812222173553562
-0.012373506557921202
-0.008921172178705875
-0.012209109682949346
-0.01204471280795466
-0.012209109682949346
-0.011880315932937105
-0.01204471280795466
-0.012209109682949346
-0.013195490932438103
-0.014675062805132838
-0.013359887807273055
-0.014675062805132838
-0.01549704717805614
-0.012209109682949346
-0.00546883778935351
-0.006619615920268107
-0.0051400440374554865
0.0035729904217671193
0.00275100603601397
0.003901784176233082
0.0001206560055475453
-0.003989265905082702
-0.0025096940189323833
-0.010236347181503375
-0.009743156555626478
-0.0161546346759862
-0.019442572160205437
-0.01566144405257268
-0.01303109405758035
-0.012866697182699796
-0.0108939346823516
-0.010400744056749803
-0.013853078431641214
-0.012209109682949346
-0.012537903432870229
-0.012373506557921202
-0.012209109682949346
-0.009249965929543025
-0.011222728432638288
-0.010400744056749803
-0.011880315932937105
-0.01566144405257268
-0.011387125307747312
-0.011222728432638288
-0.011222728432638288
-0.01434626905580444
-0.010236347181503375
-0.010400744056749803
-0.012209109682949346
-0.009743156555626478
-0.00957875968028829
-0.011551522182833437
-0.012702300307796413
-0.008263584676755698
-0.008592378427776784
-0.009085569054135947
-0.008921172178705875
-0.009249965929543025
-0.010400744056749803
-0.011715919057896707
-0.014017475306385044
-0.013688681556874596
-0.01204471280795466
-0.015990237801537716
-0.012209109682949346
-0.011715919057896707
-0.010729537807173922
-0.010400744056749803
-0.012537903432870229
-0.010236347181503375
-0.010565140931973319
-0.010565140931973319
-0.011058331557506407
-0.011222728432638288
-0.01204471280795466
-0.01204471280795466
-0.011880315932937105
-0.011058331557506407
-0.008592378427776784
-0.011551522182833437
-0.010565140931973319
-0.007934790925642525
-0.00744160029880004
-0.013359887807273055
-0.01533265030351691
-0.01730541279649135
-0.01434626905580444
-0.015168253428954961
-0.0161546346759862
-0.01352428468208522
-0.006455219044492491
-0.003496075276575021
-0.001194519007438881
0.0024222122818772646
0.003737387298988322
0.0014358310200305868
-0.00300288464785832
-0.008592378427776784
-0.009743156555626478
-0.010565140931973319
-0.012866697182699796
-0.01303109405758035
-0.01549704717805614
-0.012866697182699796
-0.0166478252991957
-0.013195490932438103
-0.013195490932438103
-0.012702300307796413
-0.012373506557921202
-0.012209109682949346
-0.012209109682949346
-0.01631903155041202
-0.010400744056749803
-0.009085569054135947
-0.011715919057896707
-0.011715919057896707
-0.011387125307747312
-0.011222728432638288
-0.0108939346823516
-0.008263584676755698
-0.006784012796020651
-0.010565140931973319
-0.010236347181503375
-0.012373506557921202
-0.01007195030623402
-0.009414362804927148
-0.008921172178705875
-0.008427981552277738
-0.00809918780121062
-0.008592378427776784
-0.009085569054135947
-0.009085569054135947
-0.011222728432638288
-0.011551522182833437
-0.008592378427776784
-0.00809918780121062
-0.012373506557921202
-0.012209109682949346
-0.01352428468208522
-0.012209109682949346
-0.014510665930480005
-0.010565140931973319
-0.010729537807173922
-0.010236347181503375
-0.010236347181503375
-0.010236347181503375
-0.010729537807173922
-0.011058331557506407
-0.01007195030623402
-0.012209109682949346
-0.01204471280795466
-0.01204471280795466
-0.011880315932937105
-0.013195490932438103
-0.01204471280795466
-0.01204471280795466
-0.011880315932937105
-0.00809918780121062
-0.011715919057896707
-0.01303109405758035
-0.013359887807273055
-0.014510665930480005
-0.015168253428954961
-0.008592378427776784
-0.007605997174437246
-0.006455219044492491
-0.0013589158839571389
-0.0007013283777441148
0.0022578154048441545
0.007847309237189216
0.00028505288227600317
-0.00300288464785832
-0.006455219044492491
-0.01303109405758035
-0.008756775303252834
-0.015168253428954961
-0.012702300307796413
-0.018291794041756473
-0.014675062805132838
-0.012373506557921202
-0.012373506557921202
-0.012373506557921202
-0.012373506557921202
-0.01533265030351691
-0.011058331557506407
-0.012373506557921202
-0.013688681556874596
-0.01204471280795466
-0.011880315932937105
-0.014017475306385044
-0.0108939346823516
-0.009249965929543025
-0.011058331557506407
-0.0108939346823516
-0.010729537807173922
-0.010729537807173922
-0.010400744056749803
-0.010236347181503375
-0.01007195030623402
-0.009907553430941712
-0.00957875968028829
-0.01007195030623402
-0.008592378427776784
-0.007605997174437246
-0.008592378427776784
-0.005797631541158976
-0.009085569054135947
-0.006948409671750096
-0.01007195030623402
-0.01566144405257268
-0.011880315932937105
-0.012373506557921202
-0.012209109682949346
-0.012209109682949346
-0.007770394050051414
-0.013688681556874596
-0.010729537807173922
-0.010400744056749803
-0.010236347181503375
-0.006455219044492491
-0.009907553430941712
-0.010729537807173922
-0.011058331557506407
-0.01204471280795466
-0.01204471280795466
-0.009414362804927148
-0.011880315932937105
-0.011880315932937105
-0.01549704717805614
-0.01483945967976294
-0.014510665930480005
-0.011058331557506407
-0.011551522182833437
-0.0108939346823516
-0.01204471280795466
-0.011715919057896707
-0.011880315932937105
-0.01549704717805614
-0.012373506557921202
-0.00957875968028829
-0.006290822168693776
-0.0036604721527674633
-0.0005369315011325149
0.005874546705009205
0.004066181053501386
0.00028505288227600317
-0.00300288464785832
-0.007770394050051414
-0.01007195030623402
-0.013359887807273055
-0.020593350277550784
-0.018620587789997506
-0.01763420654500346
-0.01352428468208522
-0.012373506557921202
-0.012702300307796413
-0.012373506557921202
-0.012209109682949346
-0.012373506557921202
-0.008921172178705875
-0.012209109682949346
-0.012209109682949346
-0.01204471280795466
-0.011715919057896707
-0.01204471280795466
-0.01007195030623402
-0.011715919057896707
-0.011715919057896707
-0.01549704717805614
-0.009085569054135947
-0.014675062805132838
-0.00727720342313979
-0.008921172178705875
-0.006619615920268107
-0.01007195030623402
-0.009743156555626478
-0.009085569054135947
-0.008592378427776784
-0.011880315932937105
-0.008756775303252834
-0.010236347181503375
-0.009249965929543025
-0.009249965929543025
-0.010565140931973319
-0.00809918780121062
-0.015825840927066542
-0.016812222173553562
-0.012373506557921202
-0.01204471280795466
-0.010236347181503375
-0.011222728432638288
-0.010729537807173922
-0.010565140931973319
-0.01204471280795466
-0.01007195030623402
-0.00809918780121062
-0.00809918780121062
-0.007934790925642525
-0.010565140931973319
-0.01352428468208522
-0.011880315932937105
-0.007605997174437246
-0.011715919057896707
-0.011222728432638288
-0.01303109405758035
-0.012537903432870229
-0.01500385655437031
-0.011551522182833437
-0.011715919057896707
-0.014675062805132838
-0.01303109405758035
-0.014510665930480005
-0.01483945967976294
-0.015990237801537716
-0.012537903432870229
-0.006455219044492491
-0.003496075276575021
-0.0007013283777441148
0.0019290216508483435
0.004066181053501386
0.00028505288227600317
0.00028505288227600317
-0.006455219044492491
-0.01007195030623402
-0.01483945967976294
-0.019442572160205437
-0.016812222173553562
-0.01500385655437031
-0.013359887807273055
-0.009743156555626478
-0.012373506557921202
-0.011880315932937105
-0.01204471280795466
-0.010565140931973319
-0.012209109682949346
-0.013195490932438103
-0.008592378427776784
-0.011058331557506407
-0.011880315932937105
-0.010236347181503375
-0.011880315932937105
-0.011551522182833437
-0.011551522182833437
-0.011058331557506407
-0.007605997174437246
-0.0108939346823516
-0.010729537807173922
-0.010565140931973319
-0.007605997174437246
-0.012209109682949346
-0.006126425292871961
-0.008921172178705875
-0.004318059657305119
-0.003824869028936681
-0.008921172178705875
-0.01303109405758035
-0.005633234665267807
-0.009907553430941712
-0.009414362804927148
-0.011551522182833437
-0.012209109682949346
-0.012537903432870229
-0.015990237801537716
-0.012373506557921202
-0.01434626905580444
-0.011551522182833437
-0.010729537807173922
-0.010565140931973319
-0.011715919057896707
-0.010729537807173922
-0.010565140931973319
-0.01483945967976294
-0.012537903432870229
-0.009907553430941712
-0.014675062805132838
-0.012537903432870229
-0.01483945967976294
-0.01204471280795466
-0.014675062805132838
-0.010400744056749803
-0.012209109682949346
-0.009249965929543025
-0.011715919057896707
-0.01204471280795466
-0.0166478252991957
-0.013359887807273055
-0.018620587789997506
-0.017798603419225595
-0.008427981552277738
-0.01007195030623402
-0.009085569054135947
-0.003989265905082702
-0.0007013283777441148
0.0032441966673952966
0.003901784176233082
0.0035729904217671193
-0.0033316784003593614
-0.006619615920268107
-0.005633234665267807
-0.013359887807273055
-0.0166478252991957
-0.01714101592220138
-0.01533265030351691
-0.013853078431641214
-0.01714101592220138
-0.012537903432870229
-0.012373506557921202
-0.009743156555626478
-0.011222728432638288
-0.011222728432638288
-0.011387125307747312
-0.013853078431641214
-0.007605997174437246
-0.011715919057896707
-0.01549704717805614
-0.008427981552277738
-0.011715919057896707
-0.009414362804927148
-0.00957875968028829
-0.011058331557506407
-0.012866697182699796
-0.010565140931973319
-0.010565140931973319
-0.012702300307796413
-0.01007195030623402
-0.009907553430941712
-0.009249965929543025
-0.008592378427776784
-0.011551522182833437
-0.005633234665267807
-0.011715919057896707
-0.009249965929543025
-0.012537903432870229
-0.010400744056749803
-0.011551522182833437
-0.012209109682949346
-0.012537903432870229
-0.01204471280795466
-0.00957875968028829
-0.015168253428954961
-0.011551522182833437
-0.011715919057896707
-0.007934790925642525
-0.00744160029880004
-0.011715919057896707
-0.010565140931973319
-0.0108939346823516
-0.01007195030623402
-0.011880315932937105
-0.01352428468208522
-0.012537903432870229
-0.010400744056749803
-0.011551522182833437
-0.01204471280795466
-0.01204471280795466
-0.012209109682949346
-0.012209109682949346
-0.01204471280795466
-0.012209109682949346
-0.014181872181106114
-0.013359887807273055
-0.015990237801537716
-0.01303109405758035
-0.012537903432870229
-0.009249965929543025
-0.0108939346823516
-0.003824869028936681
-0.0010301221308972944
0.006532134215357047
0.003901784176233082
0.0001206560055475453
-0.0031672815241204563
-0.00300288464785832
-0.013359887807273055
-0.013195490932438103
-0.01631903155041202
-0.01714101592220138
-0.01500385655437031
-0.010565140931973319
-0.012866697182699796
-0.010565140931973319
-0.012537903432870229
-0.013359887807273055
-0.009085569054135947
-0.013688681556874596
-0.01533265030351691
-0.012209109682949346
-0.0108939346823516
-0.014017475306385044
-0.010400744056749803
-0.014675062805132838
-0.01549704717805614
-0.011058331557506407
-0.011058331557506407
-0.010729537807173922
-0.0108939346823516
-0.01204471280795466
-0.010236347181503375
-0.011058331557506407
-0.01007195030623402
-0.011058331557506407
-0.004646853409434784
-0.008756775303252834
-0.01007195030623402
-0.008592378427776784
-0.009085569054135947
-0.011551522182833437
-0.009249965929543025
-0.010400744056749803
-0.011387125307747312
-0.012209109682949346
-0.012373506557921202
-0.01204471280795466
-0.012209109682949346
-0.011880315932937105
-0.011222728432638288
-0.006619615920268107
-0.014017475306385044
-0.013359887807273055
-0.010236347181503375
-0.006948409671750096
-0.010400744056749803
-0.011058331557506407
-0.011551522182833437
-0.012373506557921202
-0.01204471280795466
-0.0161546346759862
-0.011880315932937105
-0.008921172178705875
-0.011880315932937105
-0.011715919057896707
-0.01204471280795466
-0.011715919057896707
-0.011715919057896707
-0.01204471280795466
-0.013195490932438103
-0.014675062805132838
-0.01697661904788879
-0.01500385655437031
-0.012373506557921202
-0.0033316784003593614
-0.0018521065133720177
-0.003824869028936681
0.0019290216508483435
0.000942640389423835
0.0006138466358031058
-0.002838487771572931
-0.006455219044492491
-0.005633234665267807
-0.014181872181106114
-0.014181872181106114
-0.020593350277550784
-0.01352428468208522
-0.01352428468208522
-0.012702300307796413
-0.012537903432870229
-0.012537903432870229
-0.01204471280795466
-0.01204471280795466
-0.01204471280795466
-0.011880315932937105
-0.01204471280795466
-0.011880315932937105
-0.011551522182833437
-0.011551522182833437
-0.011715919057896707
-0.010400744056749803
-0.011222728432638288
-0.014675062805132838
-0.011222728432638288
-0.010729537807173922
-0.010400744056749803
-0.01007195030623402
-0.006784012796020651
-0.01007195030623402
-0.013688681556874596
-0.009249965929543025
-0.008427981552277738
-0.004153662781205512
-0.00546883778935351
-0.011058331557506407
-0.005633234665267807
-0.009249965929543025
-0.013195490932438103
-0.012209109682949346
-0.009743156555626478
-0.012209109682949346
-0.00957875968028829
-0.012209109682949346
-0.010565140931973319
-0.008921172178705875
-0.010729537807173922
-0.011222728432638288
-0.013853078431641214
-0.008263584676755698
-0.010565140931973319
-0.010565140931973319
-0.0108939346823516
-0.011880315932937105
-0.01204471280795466
-0.012209109682949346
-0.012209109682949346
-0.008263584676755698
-0.01204471280795466
-0.01303109405758035
-0.01483945967976294
-0.01204471280795466
-0.011880315932937105
-0.0108939346823516
-0.009414362804927148
-0.01533265030351691
-0.011880315932937105
-0.01631903155041202
-0.011551522182833437
-0.009249965929543025
-0.006290822168693776
-0.00037253462449755165
-4.3740871157528505e-05
0.002093418527834512
0.006696531093003159
0.00028505288227600317
-0.00300288464785832
-0.004646853409434784
-0.009743156555626478
-0.013195490932438103
-0.01631903155041202
-0.015168253428954961
-0.017798603419225595
-0.013359887807273055
-0.012373506557921202
-0.0161546346759862
-0.01204471280795466
-0.009249965929543025
-0.01204471280795466
-0.012209109682949346
-0.011551522182833437
-0.009907553430941712
-0.011880315932937105
-0.011715919057896707
-0.011551522182833437
-0.011715919057896707
-0.01533265030351691
-0.011058331557506407
-0.011058331557506407
-0.011058331557506407
-0.011058331557506407
-0.010565140931973319
-0.01204471280795466
-0.010236347181503375
-0.01007195030623402
-0.009907553430941712
-0.0051400440374554865
-0.008921172178705875
-0.008592378427776784
-0.011387125307747312
-0.009414362804927148
-0.010729537807173922
-0.010565140931973319
-0.010565140931973319
-0.011880315932937105
-0.01204471280795466
-0.009743156555626478
-0.01204471280795466
-0.01204471280795466
-0.012209109682949346
-0.014510665930480005
-0.007934790925642525
-0.010565140931973319
-0.01434626905580444
-0.011880315932937105
-0.0108939346823516
-0.013195490932438103
-0.010729537807173922
-0.01007195030623402
-0.012373506557921202
-0.012209109682949346
-0.01204471280795466
-0.011880315932937105
-0.01204471280795466
-0.011880315932937105
-0.00957875968028829
-0.01483945967976294
-0.011715919057896707
-0.010236347181503375
-0.01549704717805614
-0.010729537807173922
-0.014675062805132838
-0.01549704717805614
-0.015990237801537716
-0.009743156555626478
-0.006784012796020651
-0.00037253462449755165
-0.0007013283777441148
0.0019290216508483435
0.0011070372662693173
0.00028505288227600317
-0.00300288464785832
-0.009743156555626478
-0.00809918780121062
-0.011222728432638288
-0.01648342842481519
-0.01697661904788879
-0.015168253428954961
-0.013688681556874596
-0.012209109682949346
-0.012373506557921202
-0.012537903432870229
-0.010400744056749803
-0.01566144405257268
-0.012373506557921202
-0.015825840927066542
-0.011222728432638288
-0.013688681556874596
-0.01007195030623402
-0.008427981552277738
-0.011387125307747312
-0.011880315932937105
-0.0108939346823516
-0.012702300307796413
-0.0108939346823516
-0.010729537807173922
-0.010400744056749803
-0.01434626905580444
-0.009907553430941712
-0.009743156555626478
-0.01204471280795466
-0.013359887807273055
-0.008592378427776784
-0.008263584676755698
-0.00957875968028829
-0.008921172178705875
-0.0051400440374554865
-0.004811250285464842
-0.010236347181503375
-0.011551522182833437
-0.012209109682949346
-0.012209109682949346
-0.01204471280795466
-0.01204471280795466
-0.011387125307747312
-0.008921172178705875
-0.008921172178705875
-0.01007195030623402
-0.010236347181503375
-0.010236347181503375
-0.010400744056749803
-0.011222728432638288
-0.006784012796020651
-0.011880315932937105
-0.012537903432870229
-0.011715919057896707
-0.01483945967976294
-0.01204471280795466
-0.0108939346823516
-0.012373506557921202
-0.01204471280795466
-0.012209109682949346
-0.012537903432870229
-0.011222728432638288
-0.012373506557921202
-0.013359887807273055
-0.01352428468208522
-0.018784984664084195
-0.012702300307796413
-0.009414362804927148
-0.00546883778935351
0.00028505288227600317
-0.0008657252543323793
0.002093418527834512
-4.3740871157528505e-05
0.000449449759027859
-0.0007013283777441148
-0.006619615920268107
-0.007934790925642525
-0.012702300307796413
-0.015990237801537716
-0.01730541279649135
-0.01566144405257268
-0.011222728432638288
-0.012537903432870229
-0.012373506557921202
-0.012209109682949346
-0.011222728432638288
-0.011880315932937105
-0.012373506557921202
-0.011715919057896707
-0.01204471280795466
-0.01352428468208522
-0.011551522182833437
-0.010729537807173922
-0.01483945967976294
-0.010400744056749803
-0.008921172178705875
-0.009907553430941712
-0.009907553430941712
-0.009414362804927148
-0.008756775303252834
-0.008427981552277738
-0.008756775303252834
-0.008921172178705875
-0.005962028417027018
-0.009249965929543025
-0.00744160029880004
-0.01566144405257268
-0.01204471280795466
-0.015168253428954961
-0.012373506557921202
-0.011880315932937105
-0.012209109682949346
-0.00727720342313979
-0.011058331557506407
-0.012866697182699796
-0.010400744056749803
-0.010236347181503375
-0.010400744056749803
-0.010565140931973319
-0.007770394050051414
-0.011715919057896707
-0.012373506557921202
-0.011551522182833437
-0.012209109682949346
-0.012373506557921202
-0.011222728432638288
-0.012209109682949346
-0.012209109682949346
-0.012702300307796413
-0.011715919057896707
-0.01204471280795466
-0.011880315932937105
-0.013853078431641214
-0.01434626905580444
-0.015168253428954961
-0.01303109405758035
-0.006126425292871961
-0.008756775303252834
-0.0007013283777441148
-0.0015233127604520752
0.005052562317606202
0.00275100603601397
0.0011070372662693173
-0.002345297142577217
-0.006948409671750096
-0.008756775303252834
-0.012209109682949346
-0.012866697182699796
-0.01763420654500346
-0.015990237801537716
-0.011222728432638288
-0.012702300307796413
-0.01007195030623402
-0.009085569054135947
-0.010729537807173922
-0.014675062805132838
-0.012373506557921202
-0.014181872181106114
-0.008756775303252834
-0.01204471280795466
-0.011880315932937105
-0.01204471280795466
-0.012702300307796413
-0.011551522182833437
-0.008263584676755698
-0.011387125307747312
-0.011222728432638288
-0.006948409671750096
-0.008921172178705875
-0.01303109405758035
-0.006948409671750096
-0.010565140931973319
-0.013853078431641214
-0.009743156555626478
-0.009249965929543025
-0.008592378427776784
-0.008921172178705875
-0.009249965929543025
-0.00957875968028829
-0.004975647161471745
-0.010236347181503375
-0.011551522182833437
-0.011058331557506407
-0.011058331557506407
-0.0161546346759862
-0.008427981552277738
-0.012373506557921202
-0.01204471280795466
-0.011058331557506407
-0.010565140931973319
-0.010236347181503375
-0.010236347181503375
-0.005962028417027018
-0.009743156555626478
-0.008427981552277738
-0.008592378427776784
-0.013853078431641214
-0.012537903432870229
-0.012209109682949346
-0.008427981552277738
-0.01204471280795466
-0.012209109682949346
-0.013853078431641214
-0.01204471280795466
-0.01434626905580444
-0.01204471280795466
-0.01204471280795466
-0.012373506557921202
-0.01434626905580444
-0.011715919057896707
-0.01352428468208522
-0.014181872181106114
-0.00744160029880004
-0.00727720342313979
-0.0016877096369236969
-4.3740871157528505e-05
0.00538135607249654
-0.0020165033897970377
-0.004153662781205512
-0.00546883778935351
-0.009249965929543025
-0.012373506557921202
-0.01533265030351691
-0.01533265030351691
-0.01566144405257268
-0.011387125307747312
-0.012866697182699796
-0.012866697182699796
-0.012866697182699796
-0.012373506557921202
-0.01204471280795466
-0.012209109682949346
-0.00809918780121062
-0.012537903432870229
-0.012373506557921202
-0.012209109682949346
-0.011880315932937105
-0.013195490932438103
-0.011715919057896707
-0.011715919057896707
-0.011387125307747312
-0.00957875968028829
-0.0108939346823516
-0.0108939346823516
-0.008592378427776784
-0.010236347181503375
-0.010236347181503375
-0.009907553430941712
-0.013195490932438103
-0.010565140931973319
-0.008756775303252834
-0.008756775303252834
-0.008756775303252834
-0.00546883778935351
-0.008592378427776784
-0.010236347181503375
-0.011715919057896707
-0.01204471280795466
-0.008592378427776784
-0.012373506557921202
-0.008592378427776784
-0.012373506557921202
-0.011880315932937105
-0.013195490932438103
-0.008427981552277738
-0.011387125307747312
-0.010236347181503375
-0.010565140931973319
-0.01352428468208522
-0.009907553430941712
-0.010729537807173922
-0.012373506557921202
-0.012373506557921202
-0.012373506557921202
-0.012209109682949346
-0.011387125307747312
-0.012373506557921202
-0.009907553430941712
-0.012702300307796413
-0.012209109682949346
-0.009249965929543025
-0.0108939346823516
-0.014510665930480005
-0.01434626905580444
-0.01303109405758035
-0.01204471280795466
-0.008263584676755698
-0.00744160029880004
-0.006126425292871961
-0.006290822168693776
0.005216959195039568
0.005710149827481359
-0.0008657252543323793
-0.0025096940189323833
-0.006126425292871961
-0.009414362804927148
-0.011387125307747312
-0.012537903432870229
-0.01697661904788879
-0.01714101592220138
-0.01434626905580444
-0.012537903432870229
-0.012866697182699796
-0.012702300307796413
-0.012702300307796413
-0.011715919057896707
-0.012537903432870229
-0.012537903432870229
-0.012537903432870229
-0.012209109682949346
-0.01204471280795466
-0.01204471280795466
-0.008592378427776784
-0.011715919057896707
-0.012866697182699796
-0.011551522182833437
-0.011222728432638288
-0.007770394050051414
-0.0108939346823516
-0.011715919057896707
-0.010400744056749803
-0.010400744056749803
-0.009907553430941712
-0.012209109682949346
-0.009414362804927148
-0.01007195030623402
-0.009085569054135947
-0.00546883778935351
-0.010400744056749803
-0.012537903432870229
-0.01303109405758035
-0.011387125307747312
-0.012209109682949346
-0.01483945967976294
-0.012373506557921202
-0.012537903432870229
-0.012373506557921202
-0.012537903432870229
-0.008592378427776784
-0.014675062805132838
-0.010236347181503375
-0.010236347181503375
-0.00744160029880004
-0.01434626905580444
-0.0108939346823516
-0.015168253428954961
-0.011222728432638288
-0.008263584676755698
-0.012209109682949346
-0.012537903432870229
-0.011222728432638288
-0.01204471280795466
-0.011222728432638288
-0.013195490932438103
-0.01204471280795466
-0.012209109682949346
-0.01500385655437031
-0.009907553430941712
-0.014181872181106114
-0.012209109682949346
-0.013359887807273055
-0.010400744056749803
-0.011880315932937105
-0.004318059657305119
-0.0015233127604520752
0.0011070372662693173
0.003737387298988322
-0.0010301221308972944
-0.0025096940189323833
-0.005962028417027018
-0.010400744056749803
-0.010565140931973319
-0.015168253428954961
-0.017469809670758715
-0.014675062805132838
-0.011715919057896707
-0.012866697182699796
-0.012702300307796413
-0.012866697182699796
-0.012702300307796413
-0.00809918780121062
-0.010729537807173922
-0.008921172178705875
-0.012373506557921202
-0.012209109682949346
-0.013195490932438103
-0.01204471280795466
-0.013359887807273055
-0.011715919057896707
-0.008427981552277738
-0.011551522182833437
-0.011387125307747312
-0.010565140931973319
-0.011058331557506407
-0.01352428468208522
-0.010565140931973319
-0.010236347181503375
-0.009907553430941712
-0.00957875968028829
-0.009249965929543025
-0.011715919057896707
-0.007605997174437246
-0.0108939346823516
-0.00957875968028829
-0.00744160029880004
-0.010400744056749803
-0.014510665930480005
-0.01204471280795466
-0.012702300307796413
-0.012537903432870229
-0.012373506557921202
-0.012209109682949346
-0.01566144405257268
-0.01352428468208522
-0.006948409671750096
-0.009085569054135947
-0.008427981552277738
-0.010400744056749803
-0.010565140931973319
-0.010565140931973319
-0.011222728432638288
-0.011222728432638288
-0.012209109682949346
-0.01204471280795466
-0.012537903432870229
-0.009907553430941712
-0.011715919057896707
-0.013195490932438103
-0.0161546346759862
-0.011387125307747312
-0.011551522182833437
-0.011715919057896707
-0.01303109405758035
-0.014181872181106114
-0.018620587789997506
-0.010729537807173922
-0.010236347181503375
-0.00744160029880004
-0.004153662781205512
0.00028505288227600317
0.0012714341431382392
0.008340499870767543
-0.0015233127604520752
-0.002180900266198771
-0.005797631541158976
-0.0053044409134160656
-0.012537903432870229
-0.01549704717805614
-0.01763420654500346
-0.015825840927066542
-0.009907553430941712
-0.012702300307796413
-0.014510665930480005
-0.008592378427776784
-0.012373506557921202
-0.012373506557921202
-0.012537903432870229
-0.012373506557921202
-0.012209109682949346
-0.01204471280795466
-0.011880315932937105
-0.011880315932937105
-0.008592378427776784
-0.011058331557506407
-0.011551522182833437
-0.011222728432638288
-0.007934790925642525
-0.011058331557506407
-0.010729537807173922
-0.010400744056749803
-0.010236347181503375
-0.008263584676755698
-0.009743156555626478
-0.006126425292871961
-0.012702300307796413
-0.004646853409434784
-0.011387125307747312
-0.009085569054135947
-0.010729537807173922
-0.011222728432638288
-0.014675062805132838
-0.011715919057896707
-0.012209109682949346
-0.012866697182699796
-0.014675062805132838
-0.012373506557921202
-0.010400744056749803
-0.011880315932937105
-0.0108939346823516
-0.011058331557506407
-0.013853078431641214
-0.005962028417027018
-0.010565140931973319
-0.0108939346823516
-0.010236347181503375
-0.011715919057896707
-0.012537903432870229
-0.012702300307796413
-0.012373506557921202
-0.012373506557921202
-0.01648342842481519
-0.012209109682949346
-0.012209109682949346
-0.01204471280795466
-0.015990237801537716
-0.011880315932937105
-0.011715919057896707
-0.008592378427776784
-0.016812222173553562
-0.01549704717805614
-0.014510665930480005
-0.011715919057896707
-0.010236347181503375
-0.003989265905082702
-0.0015233127604520752
0.0012714341431382392
0.001600227896946388
-0.001194519007438881
-0.002345297142577217
-0.005797631541158976
-0.007770394050051414
-0.012209109682949346
-0.01566144405257268
-0.017469809670758715
-0.013853078431641214
-0.015168253428954961
-0.012537903432870229
-0.012537903432870229
-0.01303109405758035
-0.013853078431641214
-0.011222728432638288
-0.01500385655437031
-0.012373506557921202
-0.012209109682949346
-0.01204471280795466
-0.008592378427776784
-0.014675062805132838
-0.011551522182833437
-0.011880315932937105
-0.013195490932438103
-0.00744160029880004
-0.007934790925642525
-0.011222728432638288
-0.010729537807173922
-0.010565140931973319
-0.009249965929543025
-0.011551522182833437
-0.007605997174437246
-0.009249965929543025
-0.01007195030623402
-0.006455219044492491
-0.008592378427776784
-0.011222728432638288
-0.011715919057896707
-0.011222728432638288
-0.009907553430941712
-0.01204471280795466
-0.01500385655437031
-0.01303109405758035
-0.01007195030623402
-0.010565140931973319
-0.01204471280795466
-0.011387125307747312
-0.0108939346823516
-0.011715919057896707
-0.006290822168693776
-0.012702300307796413
-0.010236347181503375
-0.010565140931973319
-0.0108939346823516
-0.011222728432638288
-0.012209109682949346
-0.012866697182699796
-0.01566144405257268
-0.011058331557506407
-0.008592378427776784
-0.01204471280795466
-0.01204471280795466
-0.013195490932438103
-0.012209109682949346
-0.011880315932937105
-0.011715919057896707
-0.01303109405758035
-0.012373506557921202
-0.01927817528620894
-0.01533265030351691
-0.010236347181503375
-0.003824869028936681
-0.0026740908952642833
-0.0015233127604520752
-0.0025096940189323833
0.004559371685447677
0.0011070372662693173
-0.006126425292871961
-0.005633234665267807
-0.012373506557921202
-0.012702300307796413
-0.01730541279649135
-0.021086540898932984
-0.011222728432638288
-0.015990237801537716
-0.012537903432870229
-0.008263584676755698
-0.01303109405758035
-0.012209109682949346
-0.009414362804927148
-0.012209109682949346
-0.012209109682949346
-0.011058331557506407
-0.01204471280795466
-0.01007195030623402
-0.011715919057896707
-0.011715919057896707
-0.011715919057896707
-0.011387125307747312
-0.014510665930480005
-0.0108939346823516
-0.00809918780121062
-0.008756775303252834
-0.006290822168693776
-0.007112806547456475
-0.006290822168693776
-0.006619615920268107
-0.009249965929543025
-0.008756775303252834
-0.01007195030623402
-0.012866697182699796
-0.008921172178705875
-0.009085569054135947
-0.0051400440374554865
-0.01434626905580444
-0.009414362804927148
-0.012209109682949346
-0.009249965929543025
-0.009743156555626478
-0.01303109405758035
-0.012373506557921202
-0.011715919057896707
-0.011058331557506407
-0.010729537807173922
-0.010236347181503375
-0.010400744056749803
-0.00957875968028829
-0.006784012796020651
-0.013688681556874596
-0.00957875968028829
-0.012209109682949346
-0.012373506557921202
-0.012373506557921202
-0.01204471280795466
-0.00957875968028829
-0.011715919057896707
-0.01303109405758035
-0.012702300307796413
-0.014017475306385044
-0.01533265030351691
-0.01483945967976294
-0.012702300307796413
-0.013853078431641214
-0.015168253428954961
-0.013195490932438103
-0.010236347181503375
-0.00727720342313979
-0.004153662781205512
-0.0013589158839571389
0.00275100603601397
0.005710149827481359
0.0011070372662693173
-0.002180900266198771
-0.003496075276575021
-0.008921172178705875
-0.012373506557921202
-0.01549704717805614
-0.013688681556874596
-0.01927817528620894
-0.01434626905580444
-0.012373506557921202
-0.01007195030623402
-0.012537903432870229
-0.012373506557921202
-0.009085569054135947
-0.012373506557921202
-0.008756775303252834
-0.010400744056749803
-0.014675062805132838
-0.011880315932937105
-0.009414362804927148
-0.01434626905580444
-0.011880315932937105
-0.011387125307747312
-0.0108939346823516
-0.010729537807173922
-0.010400744056749803
-0.007605997174437246
-0.010565140931973319
-0.012537903432870229
-0.012373506557921202
-0.009907553430941712
-0.00744160029880004
-0.008921172178705875
-0.010729537807173922
-0.008921172178705875
-0.009249965929543025
-0.010729537807173922
-0.009414362804927148
-0.01434626905580444
-0.012209109682949346
-0.011880315932937105
-0.015825840927066542
-0.012209109682949346
-0.011222728432638288
-0.012209109682949346
-0.009907553430941712
-0.010729537807173922
-0.01352428468208522
-0.010236347181503375
-0.006619615920268107
-0.00809918780121062
-0.010565140931973319
-0.01483945967976294
-0.014017475306385044
-0.010729537807173922
-0.01204471280795466
-0.01204471280795466
-0.012209109682949346
-0.011880315932937105
-0.011880315932937105
-0.01204471280795466
-0.011880315932937105
-0.007934790925642525
-0.014181872181106114
-0.011880315932937105
-0.01714101592220138
-0.011222728432638288
-0.013853078431641214
-0.013195490932438103
-0.01007195030623402
-0.00727720342313979
-0.004482456533381543
-0.0015233127604520752
0.0014358310200305868
0.0032441966673952966
-0.0007013283777441148
-0.0031672815241204563
-0.007770394050051414
-0.009907553430941712
-0.008427981552277738
-0.012537903432870229
-0.013853078431641214
-0.015825840927066542
-0.013853078431641214
-0.016812222173553562
-0.012537903432870229
-0.012373506557921202
-0.012209109682949346
-0.009743156555626478
-0.012373506557921202
-0.012209109682949346
-0.0108939346823516
-0.011880315932937105
-0.011880315932937105
-0.013688681556874596
-0.011880315932937105
-0.009414362804927148
-0.013359887807273055
-0.011058331557506407
-0.007770394050051414
-0.0108939346823516
-0.010565140931973319
-0.010400744056749803
-0.00744160029880004
-0.006784012796020651
-0.009907553430941712
-0.009414362804927148
-0.009085569054135947
-0.008592378427776784
-0.008756775303252834
-0.012866697182699796
-0.008592378427776784
-0.00957875968028829
-0.010400744056749803
-0.009907553430941712
-0.012373506557921202
-0.012702300307796413
-0.01303109405758035
-0.012373506557921202
-0.012866697182699796
-0.01204471280795466
-0.013359887807273055
-0.0108939346823516
-0.010565140931973319
-0.009743156555626478
-0.010565140931973319
-0.0108939346823516
-0.011222728432638288
-0.009085569054135947
-0.011880315932937105
-0.012373506557921202
-0.008263584676755698
-0.012209109682949346
-0.011880315932937105
-0.01204471280795466
-0.012209109682949346
-0.012209109682949346
-0.00809918780121062
-0.011551522182833437
-0.01500385655437031
-0.013359887807273055
-0.014510665930480005
-0.015168253428954961
-0.017963000293425152
-0.010400744056749803
-0.00727720342313979
-0.003824869028936681
-0.0013589158839571389
0.001600227896946388
0.003901784176233082
0.0007782435126017576
-0.002345297142577217
-0.005962028417027018
-0.005633234665267807
-0.012537903432870229
-0.015825840927066542
-0.01763420654500346
-0.02010015965596633
-0.01007195030623402
-0.012866697182699796
-0.01303109405758035
-0.013195490932438103
-0.009743156555626478
-0.011222728432638288
-0.010236347181503375
-0.012373506557921202
-0.012537903432870229
-0.012209109682949346
-0.011880315932937105
-0.011880315932937105
-0.011880315932937105
-0.011880315932937105
-0.01500385655437031
-0.012866697182699796
-0.011222728432638288
-0.00744160029880004
-0.0108939346823516
-0.01204471280795466
-0.010236347181503375
-0.006290822168693776
-0.013853078431641214
-0.011058331557506407
-0.006619615920268107
-0.004811250285464842
-0.011222728432638288
-0.009085569054135947
-0.009414362804927148
-0.009414362804927148
-0.010236347181503375
-0.009085569054135947
-0.009907553430941712
-0.012537903432870229
-0.012373506557921202
-0.012373506557921202
-0.009743156555626478
-0.011715919057896707
-0.011222728432638288
-0.0108939346823516
-0.007770394050051414
-0.010400744056749803
-0.010236347181503375
-0.00809918780121062
-0.011058331557506407
-0.011715919057896707
-0.012209109682949346
-0.012373506557921202
-0.01204471280795466
-0.0161546346759862
-0.008427981552277738
-0.012209109682949346
-0.012373506557921202
-0.013195490932438103
-0.010236347181503375
-0.011880315932937105
-0.011880315932937105
-0.013195490932438103
-0.01434626905580444
-0.01566144405257268
-0.011715919057896707
-0.007770394050051414
-0.0053044409134160656
-0.004811250285464842
-0.003989265905082702
0.000942640389423835
0.0034085935445694396
0.0011070372662693173
-0.0026740908952642833
-0.005797631541158976
-0.010236347181503375
-0.014017475306385044
-0.017963000293425152
-0.01533265030351691
-0.015825840927066542
-0.0161546346759862
-0.008263584676755698
-0.012866697182699796
-0.011880315932937105
-0.014181872181106114
-0.012373506557921202
-0.011880315932937105
-0.012209109682949346
-0.010236347181503375
-0.015825840927066542
-0.011880315932937105
-0.011880315932937105
-0.011715919057896707
-0.011551522182833437
-0.0108939346823516
-0.00957875968028829
-0.011058331557506407
-0.012209109682949346
-0.0108939346823516
-0.013688681556874596
-0.009907553430941712
-0.010236347181503375
-0.01007195030623402
-0.009414362804927148
-0.008756775303252834
-0.007934790925642525
-0.008592378427776784
-0.008921172178705875
-0.004975647161471745
-0.009249965929543025
-0.014017475306385044
-0.011387125307747312
-0.01533265030351691
-0.011222728432638288
-0.01483945967976294
-0.012209109682949346
-0.008921172178705875
-0.011551522182833437
-0.008921172178705875
-0.010400744056749803
-0.010236347181503375
-0.01007195030623402
-0.011715919057896707
-0.0108939346823516
-0.013853078431641214
-0.007934790925642525
-0.011058331557506407
-0.012209109682949346
-0.01204471280795466
-0.01204471280795466
-0.01204471280795466
-0.013853078431641214
-0.01204471280795466
-0.014017475306385044
-0.011551522182833437
-0.013195490932438103
-0.015825840927066542
-0.01303109405758035
-0.01549704717805614
-0.012537903432870229
-0.012537903432870229
-0.009249965929543025
-0.006619615920268107
-0.0036604721527674633
-0.0005369315011325149
0.0024222122818772646
0.005874546705009205
-0.002180900266198771
-0.0031672815241204563
-0.002345297142577217
-0.010236347181503375
-0.01303109405758035
-0.01549704717805614
-0.016812222173553562
-0.01303109405758035
-0.013688681556874596
-0.011715919057896707
-0.012537903432870229
-0.015825840927066542
-0.010236347181503375
-0.01648342842481519
-0.01204471280795466
-0.01434626905580444
-0.010565140931973319
-0.011387125307747312
-0.011551522182833437
-0.011880315932937105
-0.014675062805132838
-0.011222728432638288
-0.009249965929543025
-0.010236347181503375
-0.008921172178705875
-0.0108939346823516
-0.010729537807173922
-0.010400744056749803
-0.009414362804927148
-0.007770394050051414
-0.01007195030623402
-0.009249965929543025
-0.011222728432638288
-0.009249965929543025
-0.008592378427776784
-0.008921172178705875
-0.009085569054135947
-0.009085569054135947
-0.010400744056749803
-0.011551522182833437
-0.011880315932937105
-0.012373506557921202
-0.012537903432870229
-0.012209109682949346
-0.01204471280795466
-0.007770394050051414
-0.007770394050051414
-0.01483945967976294
-0.012537903432870229
-0.008263584676755698
-0.008263584676755698
-0.010236347181503375
-0.011058331557506407
-0.0108939346823516
-0.01204471280795466
-0.01204471280795466
-0.012209109682949346
-0.014675062805132838
-0.011880315932937105
-0.00809918780121062
-0.013195490932438103
-0.011880315932937105
-0.014017475306385044
-0.007770394050051414
-0.011880315932937105
-0.010236347181503375
-0.01434626905580444
-0.019442572160205437
-0.012209109682949346
-0.009249965929543025
-0.006290822168693776
0.000449449759027859
-0.0008657252543323793
0.00439497480810868
0.0007782435126017576
0.000449449759027859
-0.0051400440374554865
-0.006290822168693776
-0.006290822168693776
-0.0108939346823516
-0.018127397167602102
-0.020593350277550784
-0.01533265030351691
-0.010565140931973319
-0.010729537807173922
-0.009414362804927148
-0.012373506557921202
-0.012537903432870229
-0.012537903432870229
-0.012373506557921202
-0.012209109682949346
-0.012373506557921202
-0.009907553430941712
-0.011880315932937105
-0.01303109405758035
-0.011715919057896707
-0.007934790925642525
-0.011551522182833437
-0.012537903432870229
-0.012866697182699796
-0.010565140931973319
-0.010565140931973319
-0.014510665930480005
-0.011551522182833437
-0.009743156555626478
-0.00957875968028829
-0.004975647161471745
-0.008921172178705875
-0.007934790925642525
-0.007112806547456475
-0.011387125307747312
-0.007934790925642525
-0.009249965929543025
-0.014017475306385044
-0.011715919057896707
-0.011715919057896707
-0.00744160029880004
-0.010400744056749803
-0.010236347181503375
-0.010400744056749803
-0.010729537807173922
-0.011058331557506407
-0.011387125307747312
-0.012209109682949346
-0.012537903432870229
-0.009085569054135947
-0.008263584676755698
-0.013853078431641214
-0.012209109682949346
-0.007934790925642525
-0.011058331557506407
-0.011880315932937105
-0.012209109682949346
-0.012209109682949346
-0.01303109405758035
-0.014181872181106114
-0.01533265030351691
-0.014181872181106114
-0.008592378427776784
-0.011551522182833437
-0.0031672815241204563
-0.0026740908952642833
-4.3740871157528505e-05
0.000942640389423835
0.0022578154048441545
-0.0015233127604520752
-0.0053044409134160656
-0.009249965929543025
-0.011715919057896707
-0.013853078431641214
-0.017963000293425152
-0.01631903155041202
-0.014675062805132838
-0.013195490932438103
-0.012866697182699796
-0.011880315932937105
-0.01204471280795466
-0.013853078431641214
-0.008263584676755698
-0.012209109682949346
-0.012373506557921202
-0.009085569054135947
-0.011880315932937105
-0.011880315932937105
-0.014510665930480005
-0.011715919057896707
-0.01352428468208522
-0.011387125307747312
-0.00744160029880004
-0.01204471280795466
-0.009085569054135947
-0.012537903432870229
-0.010236347181503375
-0.01007195030623402
-0.00957875968028829
-0.00957875968028829
-0.010729537807173922
-0.007934790925642525
-0.006619615920268107
-0.007770394050051414
-0.005962028417027018
-0.009249965929543025
-0.00744160029880004
-0.013195490932438103
-0.011880315932937105
-0.00809918780121062
-0.012537903432870229
-0.013359887807273055
-0.015990237801537716
-0.011880315932937105
-0.013688681556874596
-0.007934790925642525
-0.01204471280795466
-0.009414362804927148
-0.013195490932438103
-0.013195490932438103
-0.007112806547456475
-0.011551522182833437
-0.011715919057896707
-0.012209109682949346
-0.012209109682949346
-0.01204471280795466
-0.011880315932937105
-0.01434626905580444
-0.01303109405758035
-0.01204471280795466
-0.01434626905580444
-0.01549704717805614
-0.011715919057896707
-0.012537903432870229
-0.014017475306385044
-0.015168253428954961
-0.01845619091588828
-0.011058331557506407
-0.011880315932937105
-0.005633234665267807
-0.0020165033897970377
-0.002838487771572931
0.007025324848366404
0.0019290216508483435
-0.0015233127604520752
-0.001194519007438881
-0.004318059657305119
-0.01303109405758035
-0.015825840927066542
-0.017963000293425152
-0.01631903155041202
-0.014510665930480005
-0.015825840927066542
-0.012702300307796413
-0.016812222173553562
-0.012866697182699796
-0.008592378427776784
-0.012209109682949346
-0.010565140931973319
-0.012373506557921202
-0.012209109682949346
-0.012866697182699796
-0.011880315932937105
-0.011715919057896707
-0.012537903432870229
-0.013195490932438103
-0.014675062805132838
-0.0108939346823516
-0.010729537807173922
-0.010565140931973319
-0.006455219044492491
-0.010236347181503375
-0.008263584676755698
-0.013688681556874596
-0.009249965929543025
-0.008756775303252834
-0.008592378427776784
-0.006126425292871961
-0.007770394050051414
-0.004811250285464842
-0.005962028417027018
-0.01007195030623402
-0.011058331557506407
-0.011880315932937105
-0.012373506557921202
-0.012373506557921202
-0.013195490932438103
-0.01204471280795466
-0.01631903155041202
-0.011387125307747312
-0.006948409671750096
-0.010400744056749803
-0.010236347181503375
-0.009249965929543025
-0.010565140931973319
-0.010729537807173922
-0.010565140931973319
-0.011715919057896707
-0.01204471280795466
-0.01204471280795466
-0.015168253428954961
-0.012702300307796413
-0.011880315932937105
-0.011880315932937105
-0.011222728432638288
-0.011880315932937105
-0.00744160029880004
-0.011715919057896707
-0.012702300307796413
-0.013853078431641214
-0.015168253428954961
-0.012537903432870229
-0.0108939346823516
-0.008263584676755698
-0.006784012796020651
-0.004482456533381543
0.000449449759027859
0.0032441966673952966
0.0022578154048441545
-0.0018521065133720177
-0.006619615920268107
-0.004811250285464842
-0.011715919057896707
-0.014675062805132838
-0.017798603419225595
-0.01648342842481519
-0.017963000293425152
-0.01303109405758035
-0.012373506557921202
-0.009907553430941712
-0.015990237801537716
-0.010729537807173922
-0.01204471280795466
-0.012537903432870229
-0.012209109682949346
-0.012866697182699796
-0.009907553430941712
-0.011880315932937105
-0.010400744056749803
-0.011715919057896707
-0.01483945967976294
-0.01303109405758035
-0.011222728432638288
-0.01434626905580444
-0.007770394050051414
-0.010729537807173922
-0.007605997174437246
-0.01007195030623402
-0.01303109405758035
-0.01352428468208522
-0.013195490932438103
-0.009907553430941712
-0.008592378427776784
-0.008592378427776784
-0.009085569054135947
-0.009249965929543025
-0.009743156555626478
-0.008427981552277738
-0.01352428468208522
-0.012373506557921202
-0.012209109682949346
-0.01500385655437031
-0.013688681556874596
-0.011715919057896707
-0.011058331557506407
-0.010729537807173922
-0.01204471280795466
-0.00727720342313979
-0.010400744056749803
-0.010729537807173922
-0.010565140931973319
-0.011551522182833437
-0.010400744056749803
-0.012209109682949346
-0.012373506557921202
-0.015825840927066542
-0.013853078431641214
-0.01204471280795466
-0.007934790925642525
-0.011880315932937105
-0.012702300307796413
-0.011715919057896707
-0.008592378427776784
-0.012537903432870229
-0.01631903155041202
-0.015168253428954961
-0.011551522182833437
-0.01352428468208522
-0.005797631541158976
-0.009249965929543025
-0.0026740908952642833
0.0007782435126017576
0.0007782435126017576
0.002093418527834512
-0.0015233127604520752
-0.004975647161471745
-0.011222728432638288
-0.007112806547456475
-0.01483945967976294
-0.021250937772682138
-0.01631903155041202
-0.014510665930480005
-0.012702300307796413
-0.012373506557921202
-0.010400744056749803
-0.01648342842481519
-0.012209109682949346
-0.00957875968028829
-0.01204471280795466
-0.012209109682949346
-0.012209109682949346
-0.012537903432870229
-0.011715919057896707
-0.011715919057896707
-0.01352428468208522
-0.01303109405758035
-0.011715919057896707
-0.00727720342313979
-0.011058331557506407
-0.010729537807173922
-0.007605997174437246
-0.00744160029880004
-0.012866697182699796
-0.009743156555626478
-0.008592378427776784
-0.009249965929543025
-0.008756775303252834
-0.008592378427776784
-0.008921172178705875
-0.011551522182833437
-0.012702300307796413
-0.01007195030623402
-0.01352428468208522
-0.011551522182833437
-0.009414362804927148
-0.012702300307796413
-0.012373506557921202
-0.012373506557921202
-0.012373506557921202
-0.011387125307747312
-0.010729537807173922
-0.006948409671750096
-0.010400744056749803
-0.010400744056749803
-0.012373506557921202
-0.007934790925642525
-0.010565140931973319
-0.008756775303252834
-0.01483945967976294
-0.01204471280795466
-0.012209109682949346
-0.012209109682949346
-0.011880315932937105
-0.01204471280795466
-0.01204471280795466
-0.01204471280795466
-0.012373506557921202
-0.012866697182699796
-0.012702300307796413
-0.01648342842481519
-0.015168253428954961
-0.013688681556874596
-0.011058331557506407
-0.008427981552277738
-0.003496075276575021
-0.002345297142577217
0.000449449759027859
0.002093418527834512
0.002093418527834512
-0.0015233127604520752
-0.007770394050051414
-0.008263584676755698
-0.011715919057896707
-0.01483945967976294
-0.018291794041756473
-0.01631903155041202
-0.014017475306385044
-0.013195490932438103
-0.01434626905580444
-0.012702300307796413
-0.012866697182699796
-0.01483945967976294
-0.008756775303252834
-0.01352428468208522
-0.012373506557921202
-0.012373506557921202
-0.011880315932937105
-0.011715919057896707
-0.011715919057896707
-0.011880315932937105
-0.013688681556874596
-0.011222728432638288
-0.011058331557506407
-0.007934790925642525
-0.007770394050051414
-0.006455219044492491
-0.012702300307796413
-0.009249965929543025
-0.009907553430941712
-0.008263584676755698
-0.009414362804927148
-0.01303109405758035
-0.011387125307747312
-0.010565140931973319
-0.009085569054135947
-0.009414362804927148
-0.009907553430941712
-0.013359887807273055
-0.008921172178705875
-0.008592378427776784
-0.012373506557921202
-0.012209109682949346
-0.008592378427776784
-0.011880315932937105
-0.011058331557506407
-0.010565140931973319
-0.010400744056749803
-0.012537903432870229
-0.010236347181503375
-0.010400744056749803
-0.011222728432638288
-0.011387125307747312
-0.010565140931973319
-0.012209109682949346
-0.01533265030351691
-0.007770394050051414
-0.015168253428954961
-0.01533265030351691
-0.007934790925642525
-0.01204471280795466
-0.00809918780121062
-0.011880315932937105
-0.01533265030351691
-0.012537903432870229
-0.011551522182833437
-0.01631903155041202
-0.012537903432870229
-0.0108939346823516
-0.009907553430941712
-0.001194519007438881
0.0014358310200305868
-0.001194519007438881
0.007025324848366404
0.0019290216508483435
-0.00037253462449755165
-0.001194519007438881
-0.008263584676755698
-0.011551522182833437
-0.01927817528620894
-0.017798603419225595
-0.01483945967976294
-0.01483945967976294
-0.012702300307796413
-0.012537903432870229
-0.010400744056749803
-0.009907553430941712
-0.012209109682949346
-0.012209109682949346
-0.012373506557921202
-0.012209109682949346
-0.015990237801537716
-0.01204471280795466
-0.011715919057896707
-0.011551522182833437
-0.011387125307747312
-0.011058331557506407
-0.011058331557506407
-0.011222728432638288
-0.010729537807173922
-0.010236347181503375
-0.010565140931973319
-0.00809918780121062
-0.009907553430941712
-0.006619615920268107
-0.009414362804927148
-0.012373506557921202
-0.01204471280795466
-0.008427981552277738
-0.008921172178705875
-0.009085569054135947
-0.008921172178705875
-0.01204471280795466
-0.010729537807173922
-0.011715919057896707
-0.012209109682949346
-0.013853078431641214
-0.01648342842481519
-0.012209109682949346
-0.012537903432870229
-0.00957875968028829
-0.007934790925642525
-0.011551522182833437
-0.00744160029880004
-0.01007195030623402
-0.00744160029880004
-0.01483945967976294
-0.012537903432870229
-0.01204471280795466
-0.011222728432638288
-0.01204471280795466
-0.009743156555626478
-0.011058331557506407
-0.011551522182833437
-0.01204471280795466
-0.007934790925642525
-0.013359887807273055
-0.011880315932937105
-0.012209109682949346
-0.015825840927066542
-0.009907553430941712
-0.01566144405257268
-0.014181872181106114
-0.013853078431641214
-0.01007195030623402
-0.004975647161471745
-0.0025096940189323833
0.002915402913117572
0.00538135607249654
0.0022578154048441545
-0.001194519007438881
-0.004975647161471745
-0.004646853409434784
-0.01533265030351691
-0.01483945967976294
-0.017963000293425152
-0.01303109405758035
-0.01730541279649135
-0.012537903432870229
-0.015825840927066542
-0.015990237801537716
-0.012537903432870229
-0.012373506557921202
-0.011880315932937105
-0.012209109682949346
-0.011880315932937105
-0.00809918780121062
-0.011880315932937105
-0.011715919057896707
-0.01533265030351691
-0.011715919057896707
-0.011387125307747312
-0.011222728432638288
-0.013853078431641214
-0.011551522182833437
-0.010400744056749803
-0.010400744056749803
-0.010565140931973319
-0.009907553430941712
-0.008263584676755698
-0.009249965929543025
-0.007112806547456475
-0.008592378427776784
-0.01007195030623402
-0.006290822168693776
-0.009907553430941712
-0.009743156555626478
-0.010236347181503375
-0.011551522182833437
-0.01204471280795466
-0.012537903432870229
-0.012702300307796413
-0.012373506557921202
-0.011058331557506407
-0.009249965929543025
-0.012866697182699796
-0.011058331557506407
-0.013359887807273055
-0.010400744056749803
-0.010565140931973319
-0.010565140931973319
-0.008427981552277738
-0.011551522182833437
-0.011551522182833437
-0.011222728432638288
-0.009414362804927148
-0.012373506557921202
-0.01549704717805614
-0.01204471280795466
-0.01204471280795466
-0.011880315932937105
-0.01204471280795466
-0.011880315932937105
-0.011387125307747312
-0.012702300307796413
-0.013853078431641214
-0.01533265030351691
-0.017798603419225595
-0.011058331557506407
-0.007934790925642525
-0.0051400440374554865
-0.0025096940189323833
0.000449449759027859
0.0034085935445694396
0.002093418527834512
-0.0016877096369236969
-0.0051400440374554865
-0.010236347181503375
-0.011551522182833437
-0.016812222173553562
-0.020922144025161377
-0.01631903155041202
-0.014510665930480005
-0.012866697182699796
-0.012537903432870229
-0.012537903432870229
-0.012866697182699796
-0.012373506557921202
-0.011715919057896707
-0.011551522182833437
-0.014181872181106114
-0.01500385655437031
-0.011880315932937105
-0.011880315932937105
-0.011551522182833437
-0.01434626905580444
-0.011551522182833437
-0.011222728432638288
-0.0108939346823516
-0.0108939346823516
-0.014510665930480005
-0.010400744056749803
-0.011715919057896707
-0.0108939346823516
-0.009743156555626478
-0.012373506557921202
-0.012209109682949346
-0.010729537807173922
-0.008427981552277738
-0.008756775303252834
-0.009085569054135947
-0.009249965929543025
-0.01007195030623402
-0.01204471280795466
-0.01566144405257268
-0.01204471280795466
-0.012537903432870229
-0.012209109682949346
-0.012209109682949346
-0.011551522182833437
-0.011222728432638288
-0.010729537807173922
-0.006126425292871961
-0.010236347181503375
-0.010236347181503375
-0.010729537807173922
-0.009249965929543025
-0.011715919057896707
-0.011880315932937105
-0.009085569054135947
-0.012373506557921202
-0.012373506557921202
-0.00809918780121062
-0.013853078431641214
-0.012209109682949346
-0.01204471280795466
-0.012209109682949346
-0.01483945967976294
-0.011715919057896707
-0.009414362804927148
-0.01730541279649135
-0.016812222173553562
-0.009743156555626478
-0.012373506557921202
-0.010236347181503375
-0.006126425292871961
-0.002345297142577217
0.0006138466358031058
0.0034085935445694396
0.002093418527834512
-0.00546883778935351
-0.002345297142577217
-0.009249965929543025
-0.011551522182833437
-0.014510665930480005
-0.018949381538148305
-0.0161546346759862
-0.01483945967976294
-0.008921172178705875
-0.012702300307796413
-0.012537903432870229
-0.013195490932438103
-0.012209109682949346
-0.011715919057896707
-0.015168253428954961
-0.012373506557921202
-0.012373506557921202
-0.01204471280795466
-0.01204471280795466
-0.01434626905580444
-0.011715919057896707
-0.011551522182833437
-0.011387125307747312
-0.011058331557506407
-0.0108939346823516
-0.009085569054135947
-0.010729537807173922
-0.01007195030623402
-0.01007195030623402
-0.009907553430941712
-0.006290822168693776
-0.007112806547456475
-0.008592378427776784
-0.012373506557921202
-0.010236347181503375
-0.006455219044492491
-0.009414362804927148
-0.009743156555626478
-0.013853078431641214
-0.00957875968028829
-0.012373506557921202
-0.008263584676755698
-0.013688681556874596
-0.01434626905580444
-0.011880315932937105
-0.01007195030623402
-0.011058331557506407
-0.006619615920268107
-0.010400744056749803
-0.010400744056749803
-0.00744160029880004
-0.011058331557506407
-0.011387125307747312
-0.01204471280795466
-0.011387125307747312
-0.012702300307796413
-0.012866697182699796
-0.01204471280795466
-0.011880315932937105
-0.01204471280795466
-0.01204471280795466
-0.014181872181106114
-0.01204471280795466
-0.01566144405257268
-0.012702300307796413
-0.016812222173553562
-0.01500385655437031
-0.013688681556874596
-0.0108939346823516
-0.007605997174437246
-0.0051400440374554865
-0.004975647161471745
0.0006138466358031058
0.0034085935445694396
0.0030797997902446764
-0.001194519007438881
-0.004811250285464842
-0.008756775303252834
-0.011387125307747312
-0.01483945967976294
-0.018784984664084195
-0.01631903155041202
-0.010236347181503375
-0.011387125307747312
-0.012209109682949346
-0.012209109682949346
-0.014675062805132838
-0.012373506557921202
-0.012373506557921202
-0.011880315932937105
-0.012373506557921202
-0.013853078431641214
-0.011880315932937105
-0.01352428468208522
-0.011715919057896707
-0.008427981552277738
-0.011387125307747312
-0.00809918780121062
-0.008756775303252834
-0.011058331557506407
-0.010729537807173922
-0.008921172178705875
-0.010236347181503375
-0.009907553430941712
-0.009414362804927148
-0.009414362804927148
-0.008921172178705875
-0.003989265905082702
-0.008592378427776784
-0.008921172178705875
-0.007934790925642525
-0.009249965929543025
-0.012866697182699796
-0.009907553430941712
-0.015825840927066542
-0.008263584676755698
-0.00809918780121062
-0.011880315932937105
-0.013853078431641214
-0.013853078431641214
-0.011222728432638288
-0.011058331557506407
-0.01434626905580444
-0.01007195030623402
-0.010565140931973319
-0.010565140931973319
-0.00809918780121062
-0.01303109405758035
-0.01204471280795466
-0.008921172178705875
-0.012209109682949346
-0.012702300307796413
-0.01204471280795466
-0.012209109682949346
-0.01204471280795466
-0.011880315932937105
-0.011551522182833437
-0.012209109682949346
-0.011880315932937105
-0.012702300307796413
-0.014017475306385044
-0.015168253428954961
-0.011058331557506407
-0.01500385655437031
-0.008263584676755698
-0.0051400440374554865
0.00028505288227600317
0.00028505288227600317
-0.0007013283777441148
0.0022578154048441545
-0.0015233127604520752
-0.004975647161471745
-0.007112806547456475
-0.012702300307796413
-0.01434626905580444
-0.015825840927066542
-0.013195490932438103
-0.01483945967976294
-0.01730541279649135
-0.012702300307796413
-0.012702300307796413
-0.012537903432870229
-0.012209109682949346
-0.011880315932937105
-0.012373506557921202
-0.012209109682949346
-0.012209109682949346
-0.012209109682949346
-0.011880315932937105
-0.011551522182833437
-0.010565140931973319
-0.01483945967976294
-0.007605997174437246
-0.014181872181106114
-0.010729537807173922
-0.0108939346823516
-0.012537903432870229
-0.008921172178705875
-0.00809918780121062
-0.014017475306385044
-0.006619615920268107
-0.009085569054135947
-0.008756775303252834
-0.008427981552277738
-0.009085569054135947
-0.009085569054135947
-0.009249965929543025
-0.009907553430941712
-0.013359887807273055
-0.014510665930480005
-0.012209109682949346
-0.012209109682949346
-0.012373506557921202
-0.012209109682949346
-0.011880315932937105
-0.01434626905580444
-0.010729537807173922
-0.010236347181503375
-0.01007195030623402
-0.00809918780121062
-0.010729537807173922
-0.006619615920268107
-0.011222728432638288
-0.01204471280795466
-0.009907553430941712
-0.012209109682949346
-0.011222728432638288
-0.011387125307747312
-0.011715919057896707
-0.012373506557921202
-0.01007195030623402
-0.01352428468208522
-0.011551522182833437
-0.010729537807173922
-0.012702300307796413
-0.014017475306385044
-0.011715919057896707
-0.011222728432638288
-0.011058331557506407
-0.00744160029880004
-0.0053044409134160656
-0.0020165033897970377
0.00028505288227600317
0.006532134215357047
0.0017646247738856424
-0.0016877096369236969
-0.004811250285464842
-0.008592378427776784
-0.011880315932937105
-0.014675062805132838
-0.018127397167602102
-0.0166478252991957
-0.01697661904788879
-0.012537903432870229
-0.015825840927066542
-0.01434626905580444
-0.016812222173553562
-0.011222728432638288
-0.012373506557921202
-0.012373506557921202
-0.01500385655437031
-0.008592378427776784
-0.009907553430941712
-0.011880315932937105
-0.012537903432870229
-0.015990237801537716
-0.007934790925642525
-0.011387125307747312
-0.01500385655437031
-0.011058331557506407
-0.0108939346823516
-0.011880315932937105
-0.012537903432870229
-0.008427981552277738
-0.01204471280795466
-0.011058331557506407
-0.007934790925642525
-0.009085569054135947
-0.008592378427776784
-0.008921172178705875
-0.009414362804927148
-0.007112806547456475
-0.013688681556874596
-0.010565140931973319
-0.012537903432870229
-0.009249965929543025
-0.012537903432870229
-0.012537903432870229
-0.01648342842481519
-0.010729537807173922
-0.00727720342313979
-0.010729537807173922
-0.010729537807173922
-0.005962028417027018
-0.010565140931973319
-0.0108939346823516
-0.011058331557506407
-0.011880315932937105
-0.012866697182699796
-0.012209109682949346
-0.01007195030623402
-0.012209109682949346
-0.012209109682949346
-0.01204471280795466
-0.011551522182833437
-0.00957875968028829
-0.012866697182699796
-0.012209109682949346
-0.011880315932937105
-0.01483945967976294
-0.014181872181106114
-0.01549704717805614
-0.011551522182833437
-0.011222728432638288
-0.00809918780121062
-0.009085569054135947
-0.002345297142577217
-0.0033316784003593614
0.0032441966673952966
0.002093418527834512
-0.0015233127604520752
-0.0053044409134160656
-0.008427981552277738
-0.01204471280795466
-0.01697661904788879
-0.015825840927066542
-0.0166478252991957
-0.012373506557921202
-0.01303109405758035
-0.012702300307796413
-0.012866697182699796
-0.012702300307796413
-0.012537903432870229
-0.008263584676755698
-0.008756775303252834
-0.012537903432870229
-0.012373506557921202
-0.012209109682949346
-0.014675062805132838
-0.011880315932937105
-0.01204471280795466
-0.011715919057896707
-0.011551522182833437
-0.011222728432638288
-0.011058331557506407
-0.011387125307747312
-0.010729537807173922
-0.007605997174437246
-0.011880315932937105
-0.009743156555626478
-0.009743156555626478
-0.005633234665267807
-0.008592378427776784
-0.006948409671750096
-0.006784012796020651
-0.0053044409134160656
-0.009414362804927148
-0.010236347181503375
-0.011387125307747312
-0.011880315932937105
-0.012373506557921202
-0.014675062805132838
-0.012702300307796413
-0.012702300307796413
-0.012373506557921202
-0.011387125307747312
-0.010729537807173922
-0.010565140931973319
-0.010565140931973319
-0.008592378427776784
-0.012373506557921202
-0.011387125307747312
-0.01204471280795466
-0.012537903432870229
-0.012537903432870229
-0.014510665930480005
-0.008427981552277738
-0.0108939346823516
-0.009085569054135947
-0.012209109682949346
-0.009743156555626478
-0.012866697182699796
-0.012373506557921202
-0.012373506557921202
-0.012866697182699796
-0.014181872181106114
-0.01648342842481519
-0.01763420654500346
-0.011222728432638288
-0.008427981552277738
-0.0020165033897970377
-0.008592378427776784
-0.013853078431641214
-0.012537903432870229
-0.020428953403711786
-0.0166478252991957
-0.014675062805132838
-0.009907553430941712
-0.014675062805132838
-0.012866697182699796
-0.008592378427776784
-0.013853078431641214
-0.012373506557921202
-0.012537903432870229
-0.013195490932438103
-0.012209109682949346
-0.014675062805132838
-0.01352428468208522
-0.011715919057896707
-0.010565140931973319
-0.011715919057896707
-0.014181872181106114
-0.011222728432638288
-0.01500385655437031
-0.01549704717805614
-0.0108939346823516
-0.010400744056749803
-0.008263584676755698
-0.009743156555626478
-0.009414362804927148
-0.011058331557506407
-0.008921172178705875
-0.008592378427776784
-0.008756775303252834
-0.009085569054135947
-0.012373506557921202
-0.01303109405758035
-0.011058331557506407
-0.011880315932937105
-0.012373506557921202
-0.012537903432870229
-0.015990237801537716
-0.009907553430941712
-0.01204471280795466
-0.014510665930480005
-0.01007195030623402
-0.012537903432870229
-0.01007195030623402
-0.013359887807273055
-0.007770394050051414
-0.007770394050051414
-0.011551522182833437
-0.0161546346759862
-0.011880315932937105
-0.012209109682949346
-0.01549704717805614
-0.01483945967976294
-0.010400744056749803
-0.011058331557506407
-0.011551522182833437
-0.012373506557921202
-0.014675062805132838
-0.012209109682949346
-0.012702300307796413
-0.014181872181106114
-0.017798603419225595
-0.01483945967976294
-0.011058331557506407
-0.007934790925642525
-0.0051400440374554865
-0.0051400440374554865
0.0007782435126017576
0.0032441966673952966
0.005710149827481359
-0.0013589158839571389
-0.004975647161471745
-0.009249965929543025
-0.011551522182833437
-0.014675062805132838
-0.017798603419225595
-0.01648342842481519
-0.014510665930480005
-0.013195490932438103
-0.011551522182833437
-0.012537903432870229
-0.012373506557921202
-0.01204471280795466
-0.01204471280795466
-0.01204471280795466
-0.00957875968028829
-0.00957875968028829
-0.008756775303252834
-0.011551522182833437
-0.011715919057896707
-0.01533265030351691
-0.013853078431641214
-0.011058331557506407
-0.0108939346823516
-0.007605997174437246
-0.010565140931973319
-0.006948409671750096
-0.010236347181503375
-0.013688681556874596
-0.012209109682949346
-0.012537903432870229
-0.010729537807173922
-0.008263584676755698
-0.0051400440374554865
-0.008756775303252834
-0.010400744056749803
-0.009743156555626478
-0.009743156555626478
-0.011387125307747312
-0.014017475306385044
-0.012373506557921202
-0.012373506557921202
-0.012373506557921202
-0.012373506557921202
-0.011715919057896707
-0.011058331557506407
-0.007605997174437246
-0.010400744056749803
-0.010400744056749803
-0.014510665930480005
-0.0108939346823516
-0.01500385655437031
-0.011715919057896707
-0.015168253428954961
-0.01648342842481519
-0.008921172178705875
-0.01533265030351691
-0.01204471280795466
-0.01204471280795466
-0.011880315932937105
-0.01483945967976294
-0.011715919057896707
-0.00957875968028829
-0.013195490932438103
-0.012373506557921202
-0.01483945967976294
-0.014181872181106114
-0.014181872181106114
-0.011058331557506407
-0.006784012796020651
-0.004811250285464842
-0.0031672815241204563
0.0006138466358031058
0.0035729904217671193
0.0025866091589338697
0.00275100603601397
-0.004975647161471745
-0.00809918780121062
-0.007770394050051414
-0.014675062805132838
-0.018127397167602102
-0.01993576278205987
-0.014675062805132838
-0.012866697182699796
-0.012537903432870229
-0.012537903432870229
-0.012373506557921202
-0.009907553430941712
-0.012866697182699796
-0.012209109682949346
-0.01500385655437031
-0.012537903432870229
-0.01204471280795466
-0.009414362804927148
-0.011551522182833437
-0.011387125307747312
-0.013195490932438103
-0.008592378427776784
-0.01434626905580444
-0.010729537807173922
-0.010400744056749803
-0.010565140931973319
-0.010236347181503375
-0.013853078431641214
-0.009743156555626478
-0.009414362804927148
-0.009085569054135947
-0.008592378427776784
-0.008592378427776784
-0.011222728432638288
-0.009085569054135947
-0.007934790925642525
-0.006126425292871961
-0.010236347181503375
-0.011715919057896707
-0.007934790925642525
-0.011551522182833437
-0.01631903155041202
-0.011058331557506407
-0.008592378427776784
-0.011222728432638288
-0.009414362804927148
-0.010400744056749803
-0.011222728432638288
-0.012702300307796413
-0.010565140931973319
-0.0108939346823516
-0.007934790925642525
-0.014181872181106114
-0.0108939346823516
-0.012209109682949346
-0.01500385655437031
-0.011880315932937105
-0.011880315932937105
-0.012537903432870229
-0.008263584676755698
-0.01533265030351691
-0.0108939346823516
-0.009907553430941712
-0.011880315932937105
-0.014181872181106114
-0.01533265030351691
-0.010729537807173922
-0.012702300307796413
-0.011387125307747312
-0.004811250285464842
-0.0020165033897970377
-0.0010301221308972944
0.0034085935445694396
0.0063677373377345955
-0.0015233127604520752
-0.0051400440374554865
-0.00809918780121062
-0.011715919057896707
-0.016812222173553562
-0.02141533464640885
-0.01631903155041202
-0.015168253428954961
-0.01730541279649135
-0.012373506557921202
-0.01303109405758035
-0.012373506557921202
-0.011222728432638288
-0.009249965929543025
-0.011387125307747312
-0.014675062805132838
-0.01204471280795466
-0.01204471280795466
-0.011715919057896707
-0.007605997174437246
-0.01566144405257268
-0.012373506557921202
-0.00744160029880004
-0.01007195030623402
-0.0108939346823516
-0.012537903432870229
-0.010565140931973319
-0.013359887807273055
-0.010236347181503375
-0.005962028417027018
-0.009414362804927148
-0.008921172178705875
-0.004482456533381543
-0.011880315932937105
-0.006455219044492491
-0.009249965929543025
-0.00957875968028829
-0.01352428468208522
-0.012373506557921202
-0.011715919057896707
-0.008756775303252834
-0.012373506557921202
-0.01631903155041202
-0.012209109682949346
-0.011715919057896707
-0.011222728432638288
-0.0108939346823516
-0.005797631541158976
-0.006948409671750096
-0.010400744056749803
-0.0108939346823516
-0.007112806547456475
-0.01483945967976294
-0.01204471280795466
-0.012209109682949346
-0.012209109682949346
-0.011880315932937105
-0.010236347181503375
-0.012866697182699796
-0.011880315932937105
-0.01204471280795466
-0.011880315932937105
-0.01204471280795466
-0.011880315932937105
-0.013359887807273055
-0.009414362804927148
-0.01533265030351691
-0.010565140931973319
-0.011222728432638288
-0.008427981552277738
-0.00546883778935351
-0.0026740908952642833
0.00028505288227600317
0.006860927970672941
0.002093418527834512
-0.0015233127604520752
-0.008756775303252834
-0.006290822168693776
-0.015168253428954961
-0.01845619091588828
-0.017469809670758715
-0.014510665930480005
-0.014675062805132838
-0.01303109405758035
-0.0161546346759862
-0.01533265030351691
-0.012537903432870229
-0.013688681556874596
-0.012209109682949346
-0.01007195030623402
-0.014017475306385044
-0.012209109682949346
-0.012866697182699796
-0.011058331557506407
-0.011551522182833437
-0.007605997174437246
-0.008263584676755698
-0.011551522182833437
-0.011222728432638288
-0.011551522182833437
-0.01303109405758035
-0.010565140931973319
-0.010565140931973319
-0.00809918780121062
-0.011551522182833437
-0.009249965929543025
-0.009085569054135947
-0.010729537807173922
-0.008921172178705875
-0.01204471280795466
-0.009085569054135947
-0.009414362804927148
-0.009907553430941712
-0.010729537807173922
-0.011551522182833437
-0.012209109682949346
-0.011715919057896707
-0.012866697182699796
-0.010729537807173922
-0.011058331557506407
-0.011222728432638288
-0.014181872181106114
-0.010236347181503375
-0.013195490932438103
-0.010236347181503375
-0.011387125307747312
-0.0108939346823516
-0.011387125307747312
-0.011880315932937105
-0.013853078431641214
-0.011222728432638288
-0.011880315932937105
-0.01204471280795466
-0.010236347181503375
-0.01204471280795466
-0.012866697182699796
-0.014017475306385044
-0.01204471280795466
-0.011715919057896707
-0.012702300307796413
-0.013853078431641214
-0.01500385655437031
-0.011058331557506407
-0.011058331557506407
-0.007934790925642525
-0.009085569054135947
-0.0020165033897970377
0.0006138466358031058
0.0035729904217671193
0.0022578154048441545
-0.004811250285464842
-0.0026740908952642833
-0.00809918780121062
-0.010565140931973319
-0.014510665930480005
-0.015990237801537716
-0.013195490932438103
-0.01434626905580444
-0.012866697182699796
-0.012537903432870229
-0.012373506557921202
-0.014510665930480005
-0.01549704717805614
-0.01303109405758035
-0.01204471280795466
-0.012209109682949346
-0.01352428468208522
-0.015990237801537716
-0.009414362804927148
-0.015825840927066542
-0.011551522182833437
-0.011222728432638288
-0.007605997174437246
-0.011058331557506407
-0.009414362804927148
-0.010729537807173922
-0.01007195030623402
-0.006455219044492491
-0.01007195030623402
-0.005633234665267807
-0.009249965929543025
-0.00809918780121062
-0.007605997174437246
-0.008921172178705875
-0.008592378427776784
-0.007770394050051414
-0.009249965929543025
-0.011387125307747312
-0.013853078431641214
-0.011880315932937105
-0.01204471280795466
-0.012373506557921202
-0.012537903432870229
-0.01204471280795466
-0.012702300307796413
-0.011058331557506407
-0.0108939346823516
-0.006126425292871961
-0.013688681556874596
-0.009907553430941712
-0.010565140931973319
-0.00744160029880004
-0.011222728432638288
-0.01204471280795466
-0.01204471280795466
-0.012209109682949346
-0.013195490932438103
-0.012209109682949346
-0.011880315932937105
-0.01533265030351691
-0.010236347181503375
-0.013688681556874596
-0.012866697182699796
-0.010729537807173922
-0.012702300307796413
-0.01714101592220138
-0.015168253428954961
-0.014181872181106114
-0.013688681556874596
-0.007770394050051414
-0.00809918780121062
-0.004318059657305119
-0.002345297142577217
0.005052562317606202
0.002093418527834512
0.0017646247738856424
-0.002345297142577217
-0.007934790925642525
-0.011387125307747312
-0.014510665930480005
-0.017963000293425152
-0.01730541279649135
-0.010400744056749803
-0.012866697182699796
-0.012537903432870229
-0.012702300307796413
-0.012537903432870229
-0.012373506557921202
-0.011551522182833437
-0.008263584676755698
-0.012209109682949346
-0.010236347181503375
-0.013853078431641214
-0.012537903432870229
-0.01549704717805614
-0.009085569054135947
-0.011222728432638288
-0.011222728432638288
-0.00957875968028829
-0.006784012796020651
-0.0108939346823516
-0.00727720342313979
-0.010400744056749803
-0.01007195030623402
-0.009743156555626478
-0.009414362804927148
-0.009085569054135947
-0.012702300307796413
-0.008592378427776784
-0.008756775303252834
-0.008921172178705875
-0.009414362804927148
-0.008263584676755698
-0.013195490932438103
-0.011880315932937105
-0.013688681556874596
-0.012373506557921202
-0.012373506557921202
-0.00809918780121062
-0.011715919057896707
-0.011880315932937105
-0.0108939346823516
-0.0108939346823516
-0.011387125307747312
-0.010400744056749803
-0.007605997174437246
-0.013853078431641214
-0.01500385655437031
-0.010400744056749803
-0.012209109682949346
-0.012209109682949346
-0.0161546346759862
-0.011222728432638288
-0.011880315932937105
-0.01631903155041202
-0.011058331557506407
-0.011715919057896707
-0.007934790925642525
-0.011551522182833437
-0.01549704717805614
-0.014017475306385044
-0.01566144405257268
-0.018291794041756473
-0.010729537807173922
-0.007605997174437246
-0.005633234665267807
-0.0018521065133720177
0.0025866091589338697
-0.00037253462449755165
-4.3740871157528505e-05
-0.0015233127604520752
-0.00300288464785832
-0.008263584676755698
-0.01303109405758035
-0.014675062805132838
-0.014181872181106114
-0.014181872181106114
-0.01434626905580444
-0.012866697182699796
-0.012537903432870229
-0.012702300307796413
-0.012373506557921202
-0.015825840927066542
-0.007770394050051414
-0.011880315932937105
-0.012209109682949346
-0.01566144405257268
-0.01204471280795466
-0.011715919057896707
-0.011551522182833437
-0.011551522182833437
-0.011387125307747312
-0.011387125307747312
-0.008592378427776784
-0.010729537807173922
-0.008756775303252834
-0.010400744056749803
-0.014510665930480005
-0.009907553430941712
-0.011387125307747312
-0.009249965929543025
-0.008756775303252834
-0.008756775303252834
-0.008592378427776784
-0.008592378427776784
-0.005797631541158976
-0.009249965929543025
-0.00727720342313979
-0.013853078431641214
-0.010236347181503375
-0.01204471280795466
-0.01566144405257268
-0.01204471280795466
-0.01566144405257268
-0.008756775303252834
-0.009249965929543025
-0.013195490932438103
-0.010236347181503375
-0.010400744056749803
-0.01007195030623402
-0.010565140931973319
-0.00809918780121062
-0.013853078431641214
-0.012373506557921202
-0.014017475306385044
-0.01204471280795466
-0.012373506557921202
-0.015990237801537716
-0.011551522182833437
-0.011880315932937105
-0.011715919057896707
-0.011715919057896707
-0.011715919057896707
-0.011715919057896707
-0.012702300307796413
-0.014510665930480005
-0.015168253428954961
-0.014017475306385044
-0.0108939346823516
-0.0108939346823516
-0.008427981552277738
-0.0008657252543323793
0.002915402913117572
0.0001206560055475453
0.003901784176233082
-0.0013589158839571389
-0.004975647161471745
-0.008263584676755698
-0.011551522182833437
-0.01483945967976294
-0.021250937772682138
-0.012537903432870229
-0.01549704717805614
-0.01204471280795466
-0.012209109682949346
-0.012373506557921202
-0.014510665930480005
-0.012373506557921202
-0.011387125307747312
-0.01204471280795466
-0.015990237801537716
-0.009907553430941712
-0.015825840927066542
-0.011880315932937105
-0.011551522182833437
-0.011387125307747312
-0.011222728432638288
-0.011222728432638288
-0.0108939346823516
-0.010729537807173922
-0.013359887807273055
-0.010236347181503375
-0.01352428468208522
-0.009907553430941712
-0.012537903432870229
-0.009085569054135947
-0.008921172178705875
-0.006948409671750096
-0.007770394050051414
-0.008592378427776784
-0.009249965929543025
-0.005797631541158976
-0.00957875968028829
-0.010729537807173922
-0.011551522182833437
-0.012373506557921202
-0.012373506557921202
-0.01303109405758035
-0.01204471280795466
-0.011715919057896707
-0.011222728432638288
-0.010729537807173922
-0.01352428468208522
-0.010236347181503375
-0.00957875968028829
-0.010565140931973319
-0.006948409671750096
-0.0108939346823516
-0.01204471280795466
-0.011880315932937105
-0.014675062805132838
-0.01204471280795466
-0.011880315932937105
-0.01204471280795466
-0.011551522182833437
-0.011222728432638288
-0.013195490932438103
-0.011715919057896707
-0.011715919057896707
-0.012537903432870229
-0.012209109682949346
-0.01500385655437031
-0.013853078431641214
-0.0108939346823516
-0.007770394050051414
-0.004318059657305119
0.000942640389423835
0.0019290216508483435
0.0035729904217671193
0.0022578154048441545
-0.001194519007438881
-0.004975647161471745
-0.011880315932937105
-0.011551522182833437
-0.011715919057896707
-0.01763420654500346
-0.017798603419225595
-0.0108939346823516
-0.008592378427776784
-0.015168253428954961
-0.0161546346759862
-0.012209109682949346
-0.012373506557921202
-0.015990237801537716
-0.015825840927066542
-0.012209109682949346
-0.01204471280795466
-0.011222728432638288
-0.015990237801537716
-0.01549704717805614
-0.011387125307747312
-0.014675062805132838
-0.0108939346823516
-0.009907553430941712
-0.010729537807173922
-0.01007195030623402
-0.007112806547456475
-0.011880315932937105
-0.006784012796020651
-0.00957875968028829
-0.010729537807173922
-0.010565140931973319
-0.00809918780121062
-0.0051400440374554865
-0.008427981552277738
-0.008921172178705875
-0.011551522182833437
-0.009907553430941712
-0.008263584676755698
-0.00809918780121062
-0.010565140931973319
-0.01204471280795466
-0.01204471280795466
-0.012537903432870229
-0.011387125307747312
-0.007770394050051414
-0.0108939346823516
-0.00727720342313979
-0.01204471280795466
-0.007770394050051414
-0.010400744056749803
-0.011058331557506407
-0.009249965929543025
-0.009743156555626478
-0.012209109682949346
-0.01566144405257268
-0.01303109405758035
-0.01204471280795466
-0.00957875968028829
-0.009249965929543025
-0.010729537807173922
-0.013688681556874596
-0.008427981552277738
-0.011880315932937105
-0.009414362804927148
-0.013853078431641214
-0.015168253428954961
-0.014181872181106114
-0.014017475306385044
-0.00809918780121062
-0.004482456533381543
-0.0025096940189323833
-0.002838487771572931
0.0035729904217671193
-0.0013589158839571389
-0.001194519007438881
-0.008756775303252834
-0.011222728432638288
-0.015825840927066542
-0.01204471280795466
-0.017798603419225595
-0.015825840927066542
-0.01434626905580444
-0.014181872181106114
-0.011387125307747312
-0.015168253428954961
-0.010565140931973319
-0.012373506557921202
-0.01204471280795466
-0.01303109405758035
-0.009249965929543025
-0.012209109682949346
-0.01204471280795466
-0.011715919057896707
-0.008921172178705875
-0.011387125307747312
-0.010565140931973319
-0.01434626905580444
-0.0108939346823516
-0.01352428468208522
-0.011387125307747312
-0.010565140931973319
-0.01204471280795466
-0.005797631541158976
-0.01303109405758035
-0.009249965929543025
-0.009249965929543025
-0.008427981552277738
-0.008592378427776784
-0.008756775303252834
-0.009249965929543025
-0.009414362804927148
-0.005797631541158976
-0.009907553430941712
-0.015825840927066542
-0.012209109682949346
-0.01007195030623402
-0.012537903432870229
-0.016812222173553562
-0.013688681556874596
-0.014675062805132838
-0.010729537807173922
-0.010400744056749803
-0.009414362804927148
-0.009907553430941712
-0.010565140931973319
-0.010729537807173922
-0.011880315932937105
-0.011880315932937105
-0.01204471280795466
-0.012209109682949346
-0.012209109682949346
-0.01204471280795466
-0.01204471280795466
-0.014181872181106114
-0.013359887807273055
-0.01204471280795466
-0.011880315932937105
-0.008592378427776784
-0.01648342842481519
-0.013853078431641214
-0.01631903155041202
-0.01483945967976294
-0.009249965929543025
-0.007934790925642525
-0.004811250285464842
-0.006126425292871961
0.000449449759027859
0.007354118603824407
0.004723768562810267
-0.0013589158839571389
-0.0051400440374554865
-0.008427981552277738
-0.011551522182833437
-0.01204471280795466
-0.018291794041756473
-0.01648342842481519
-0.014675062805132838
-0.01303109405758035
-0.012537903432870229
-0.012702300307796413
-0.012702300307796413
-0.012702300307796413
-0.01566144405257268
-0.012537903432870229
-0.012209109682949346
-0.012537903432870229
-0.012373506557921202
-0.009743156555626478
-0.011715919057896707
-0.014510665930480005
-0.011715919057896707
-0.011222728432638288
-0.008592378427776784
-0.00727720342313979
-0.008756775303252834
-0.010729537807173922
-0.006290822168693776
-0.010236347181503375
-0.005962028417027018
-0.00957875968028829
-0.008921172178705875
-0.008592378427776784
-0.010565140931973319
-0.008921172178705875
-0.009085569054135947
-0.009414362804927148
-0.01007195030623402
-0.013195490932438103
-0.011880315932937105
-0.012209109682949346
-0.012373506557921202
-0.01352428468208522
-0.01204471280795466
-0.011715919057896707
-0.014510665930480005
-0.011058331557506407
-0.010236347181503375
-0.013359887807273055
-0.008756775303252834
-0.010400744056749803
-0.014510665930480005
-0.011222728432638288
-0.012209109682949346
-0.011880315932937105
-0.01204471280795466
-0.011880315932937105
-0.014181872181106114
-0.01007195030623402
-0.015825840927066542
-0.011715919057896707
-0.00957875968028829
-0.013853078431641214
-0.011715919057896707
-0.012702300307796413
-0.012537903432870229
-0.01500385655437031
-0.013853078431641214
-0.012373506557921202
-0.009907553430941712
-0.00809918780121062
-0.001194519007438881
0.0007782435126017576
0.003737387298988322
0.0025866091589338697
-0.0015233127604520752
-0.004646853409434784
-0.008263584676755698
-0.01007195030623402
-0.014675062805132838
-0.017798603419225595
-0.01911377841218989
-0.01434626905580444
-0.016812222173553562
-0.012209109682949346
-0.00957875968028829
-0.012537903432870229
-0.00809918780121062
-0.012866697182699796
-0.012209109682949346
-0.008427981552277738
-0.01434626905580444
-0.01204471280795466
-0.015825840927066542
-0.01533265030351691
-0.01007195030623402
-0.011551522182833437
-0.010565140931973319
-0.011222728432638288
-0.013688681556874596
-0.006290822168693776
-0.010565140931973319
-0.010400744056749803
-0.01007195030623402
-0.00727720342313979
-0.012702300307796413
-0.013195490932438103
-0.008592378427776784
-0.005962028417027018
-0.008921172178705875
-0.008921172178705875
-0.009249965929543025
-0.009743156555626478
-0.010236347181503375
-0.011551522182833437
-0.012537903432870229
-0.012209109682949346
-0.013853078431641214
-0.008263584676755698
-0.011551522182833437
-0.011222728432638288
-0.010565140931973319
-0.007605997174437246
-0.010236347181503375
-0.007934790925642525
-0.010565140931973319
-0.008427981552277738
-0.013688681556874596
-0.01549704717805614
-0.012373506557921202
-0.008263584676755698
-0.01204471280795466
-0.01204471280795466
-0.011880315932937105
-0.011715919057896707
-0.00957875968028829
-0.011880315932937105
-0.00809918780121062
-0.013195490932438103
-0.012537903432870229
-0.013688681556874596
-0.01763420654500346
-0.013853078431641214
-0.010729537807173922
-0.0051400440374554865
-0.004811250285464842
-0.0026740908952642833
0.0014358310200305868
0.0035729904217671193
-0.0018521065133720177
-0.0018521065133720177
-0.004811250285464842
-0.006619615920268107
-0.011551522182833437
-0.01434626905580444
-0.015168253428954961
-0.01648342842481519
-0.01697661904788879
-0.012866697182699796
-0.008427981552277738
-0.012373506557921202
-0.012209109682949346
-0.012209109682949346
-0.010729537807173922
-0.013853078431641214
-0.01204471280795466
-0.01483945967976294
-0.010400744056749803
-0.01007195030623402
-0.01007195030623402
-0.015168253428954961
-0.011222728432638288
-0.00809918780121062
-0.01204471280795466
-0.015168253428954961
-0.010400744056749803
-0.008427981552277738
-0.009085569054135947
-0.012373506557921202
-0.008921172178705875
-0.009085569054135947
-0.00957875968028829
-0.013853078431641214
-0.010400744056749803
-0.01204471280795466
-0.008263584676755698
-0.008592378427776784
-0.012209109682949346
-0.014181872181106114
-0.011715919057896707
-0.010565140931973319
-0.010236347181503375
-0.009414362804927148
-0.011551522182833437
-0.012537903432870229
-0.010565140931973319
-0.011058331557506407
-0.011551522182833437
-0.013853078431641214
-0.011058331557506407
-0.011880315932937105
-0.012702300307796413
-0.011058331557506407
-0.011715919057896707
-0.011715919057896707
-0.00744160029880004
-0.011715919057896707
-0.011880315932937105
-0.012209109682949346
-0.013359887807273055
-0.014675062805132838
-0.018784984664084195
-0.011551522182833437
-0.008592378427776784
-0.008921172178705875
-0.002345297142577217
-4.3740871157528505e-05
0.001600227896946388
0.0006138466358031058
-4.3740871157528505e-05
-0.004646853409434784
-0.007112806547456475
-0.010729537807173922
-0.014510665930480005
-0.013853078431641214
-0.01648342842481519
-0.01631903155041202
-0.013195490932438103
-0.012209109682949346
-0.012866697182699796
-0.012209109682949346
-0.010729537807173922
-0.010729537807173922
-0.01204471280795466
-0.009743156555626478
-0.011551522182833437
-0.011715919057896707
-0.015168253428954961
-0.011387125307747312
-0.011222728432638288
-0.01500385655437031
-0.013688681556874596
-0.010729537807173922
-0.010400744056749803
-0.011058331557506407
-0.009743156555626478
-0.009907553430941712
-0.008756775303252834
-0.009414362804927148
-0.006619615920268107
-0.008756775303252834
-0.012209109682949346
-0.007934790925642525
-0.012209109682949346
-0.008592378427776784
-0.008921172178705875
-0.009249965929543025
-0.009085569054135947
-0.011715919057896707
-0.011387125307747312
-0.01549704717805614
-0.012209109682949346
-0.011715919057896707
-0.008427981552277738
-0.01483945967976294
-0.005962028417027018
-0.010236347181503375
-0.008427981552277738
-0.009743156555626478
-0.010236347181503375
-0.00744160029880004
-0.011387125307747312
-0.011387125307747312
-0.01303109405758035
-0.013688681556874596
-0.011880315932937105
-0.011715919057896707
-0.011551522182833437
-0.011551522182833437
-0.011715919057896707
-0.011551522182833437
-0.011551522182833437
-0.01533265030351691
-0.011715919057896707
-0.01352428468208522
-0.014510665930480005
-0.01697661904788879
-0.011222728432638288
-0.010565140931973319
-0.0053044409134160656
-0.002838487771572931
0.002915402913117572
0.002915402913117572
0.003737387298988322
-4.3740871157528505e-05
-0.0026740908952642833
-0.004318059657305119
-0.010565140931973319
-0.013853078431641214
-0.016812222173553562
-0.01648342842481519
-0.01500385655437031
-0.01303109405758035
-0.012537903432870229
-0.0166478252991957
-0.012373506557921202
-0.012373506557921202
-0.009414362804927148
-0.01204471280795466
-0.011880315932937105
-0.008592378427776784
-0.012209109682949346
-0.013853078431641214
-0.011715919057896707
-0.011222728432638288
-0.011222728432638288
-0.011222728432638288
-0.0108939346823516
-0.010729537807173922
-0.007934790925642525
-0.010400744056749803
-0.00744160029880004
-0.01007195030623402
-0.006619615920268107
-0.013195490932438103
-0.005797631541158976
-0.008592378427776784
-0.008427981552277738
-0.008921172178705875
-0.008921172178705875
-0.005797631541158976
-0.009743156555626478
-0.013688681556874596
-0.008921172178705875
-0.01204471280795466
-0.012373506557921202
-0.012373506557921202
-0.008263584676755698
-0.01566144405257268
-0.011222728432638288
-0.011715919057896707
-0.010400744056749803
-0.01007195030623402
-0.010236347181503375
-0.011551522182833437
-0.010729537807173922
-0.009414362804927148
-0.011880315932937105
-0.008427981552277738
-0.01204471280795466
-0.011058331557506407
-0.008756775303252834
-0.01204471280795466
-0.011715919057896707
-0.00957875968028829
-0.01204471280795466
-0.009085569054135947
-0.011715919057896707
-0.015168253428954961
-0.01533265030351691
-0.01483945967976294
-0.012702300307796413
-0.011058331557506407
-0.008756775303252834
-0.005633234665267807
-0.0015233127604520752
-0.004482456533381543
-0.0016877096369236969
0.0032441966673952966
-0.00020813774783921823
-0.004153662781205512
-0.011551522182833437
-0.010565140931973319
-0.009743156555626478
-0.01697661904788879
-0.0166478252991957
-0.01648342842481519
-0.013195490932438103
-0.01566144405257268
-0.014510665930480005
-0.012373506557921202
-0.012373506557921202
-0.012373506557921202
-0.01204471280795466
-0.01204471280795466
-0.008592378427776784
-0.010565140931973319
-0.011715919057896707
-0.011551522182833437
-0.011387125307747312
-0.007770394050051414
-0.011222728432638288
-0.011222728432638288
-0.0108939346823516
-0.010729537807173922
-0.010565140931973319
-0.010236347181503375
-0.005797631541158976
-0.008592378427776784
-0.009249965929543025
-0.011058331557506407
-0.011222728432638288
-0.008592378427776784
-0.008921172178705875
-0.009085569054135947
-0.009414362804927148
-0.00957875968028829
-0.01434626905580444
-0.012373506557921202
-0.01204471280795466
-0.009085569054135947
-0.011387125307747312
-0.01483945967976294
-0.011880315932937105
-0.011222728432638288
-0.00809918780121062
-0.012373506557921202
-0.010236347181503375
-0.010236347181503375
-0.007112806547456475
-0.01500385655437031
-0.011715919057896707
-0.01204471280795466
-0.012209109682949346
-0.009085569054135947
-0.01204471280795466
-0.013853078431641214
-0.011880315932937105
-0.014510665930480005
-0.013853078431641214
-0.008427981552277738
-0.011715919057896707
-0.00957875968028829
-0.01204471280795466
-0.013359887807273055
-0.014510665930480005
-0.017469809670758715
-0.011551522182833437
-0.008427981552277738
-0.005633234665267807
-0.0026740908952642833
-0.00020813774783921823
0.002915402913117572
0.0034085935445694396
-0.0020165033897970377
-0.004975647161471745
-0.007770394050051414
-0.012866697182699796
-0.01648342842481519
-0.016812222173553562
-0.01648342842481519
-0.01500385655437031
-0.015990237801537716
-0.012373506557921202
-0.013688681556874596
-0.01483945967976294
-0.01007195030623402
-0.0108939346823516
-0.009414362804927148
-0.01204471280795466
-0.01204471280795466
-0.011880315932937105
-0.011715919057896707
-0.015168253428954961
-0.011715919057896707
-0.010729537807173922
-0.011058331557506407
-0.011222728432638288
-0.011222728432638288
-0.010729537807173922
-0.006455219044492491
-0.010565140931973319
-0.010565140931973319
-0.01007195030623402
-0.00957875968028829
-0.013359887807273055
-0.011715919057896707
-0.00727720342313979
-0.010400744056749803
-0.00546883778935351
-0.009414362804927148
-0.012537903432870229
-0.0108939346823516
-0.01303109405758035
-0.007770394050051414
-0.012373506557921202
-0.012537903432870229
-0.012373506557921202
-0.011715919057896707
-0.0108939346823516
-0.010729537807173922
-0.010729537807173922
-0.008427981552277738
-0.010400744056749803
-0.006290822168693776
-0.014675062805132838
-0.011551522182833437
-0.008263584676755698
-0.010565140931973319
-0.015990237801537716
-0.011880315932937105
-0.01500385655437031
-0.008263584676755698
-0.010236347181503375
-0.01549704717805614
-0.007605997174437246
-0.01204471280795466
-0.012209109682949346
-0.012537903432870229
-0.013688681556874596
-0.015168253428954961
-0.01483945967976294
-0.011715919057896707
-0.008921172178705875
-0.009414362804927148
-0.00300288464785832
-0.00020813774783921823
0.0024222122818772646
0.0022578154048441545
-0.0016877096369236969
-0.003824869028936681
-0.007605997174437246
-0.010565140931973319
-0.01714101592220138
-0.014510665930480005
-0.015825840927066542
-0.017963000293425152
-0.013359887807273055
-0.009743156555626478
-0.012537903432870229
-0.015168253428954961
-0.012537903432870229
-0.014675062805132838
-0.011715919057896707
-0.012537903432870229
-0.014017475306385044
-0.01549704717805614
-0.01204471280795466
-0.011880315932937105
-0.011551522182833437
-0.011551522182833437
-0.009743156555626478
-0.010400744056749803
-0.011058331557506407
-0.014181872181106114
-0.010729537807173922
-0.010400744056749803
-0.010236347181503375
-0.009907553430941712
-0.009414362804927148
-0.009085569054135947
-0.008756775303252834
-0.009085569054135947
-0.008921172178705875
-0.011387125307747312
-0.009414362804927148
-0.01352428468208522
-0.010729537807173922
-0.011551522182833437
-0.009743156555626478
-0.010236347181503375
-0.010400744056749803
-0.012537903432870229
-0.011880315932937105
-0.011387125307747312
-0.0108939346823516
-0.010400744056749803
-0.01007195030623402
-0.009249965929543025
-0.010565140931973319
-0.010729537807173922
-0.011222728432638288
-0.011880315932937105
-0.009249965929543025
-0.013853078431641214
-0.01204471280795466
-0.01204471280795466
-0.011222728432638288
-0.011715919057896707
-0.011058331557506407
-0.01007195030623402
-0.011880315932937105
-0.009414362804927148
-0.011387125307747312
-0.015825840927066542
-0.01483945967976294
-0.014510665930480005
-0.01500385655437031
-0.006455219044492491
-0.007112806547456475
-0.002838487771572931
-0.00020813774783921823
0.004888165440196435
0.0032441966673952966
-0.0010301221308972944
-0.003989265905082702
-0.004811250285464842
-0.013359887807273055
-0.01434626905580444
-0.0166478252991957
-0.01714101592220138
-0.01533265030351691
-0.015825840927066542
-0.013195490932438103
-0.00957875968028829
-0.012866697182699796
-0.01434626905580444
-0.012702300307796413
-0.012373506557921202
-0.012209109682949346
-0.01007195030623402
-0.012209109682949346
-0.01204471280795466
-0.007770394050051414
-0.008263584676755698
-0.011551522182833437
-0.011551522182833437
-0.011222728432638288
-0.011058331557506407
-0.011880315932937105
-0.008263584676755698
-0.01204471280795466
-0.009414362804927148
-0.006126425292871961
-0.009414362804927148
-0.009249965929543025
-0.009085569054135947
-0.008427981552277738
-0.011880315932937105
-0.010236347181503375
-0.005797631541158976
-0.009743156555626478
-0.01352428468208522
-0.008592378427776784
-0.01352428468208522
-0.008756775303252834
-0.013359887807273055
-0.012373506557921202
-0.01204471280795466
-0.008756775303252834
-0.010729537807173922
-0.010565140931973319
-0.012866697182699796
-0.014181872181106114
-0.012537903432870229
-0.0108939346823516
-0.011387125307747312
-0.011880315932937105
-0.01631903155041202
-0.011880315932937105
-0.013195490932438103
-0.012209109682949346
-0.009249965929543025
-0.012537903432870229
-0.012373506557921202
-0.00744160029880004
-0.01204471280795466
-0.007605997174437246
-0.012209109682949346
-0.013688681556874596
-0.01714101592220138
-0.01500385655437031
-0.011715919057896707
-0.008427981552277738
-0.004318059657305119
-0.0015233127604520752
-4.3740871157528505e-05
0.0024222122818772646
0.0034085935445694396
-0.0015233127604520752
-0.003989265905082702
-0.00727720342313979
-0.006948409671750096
-0.010400744056749803
-0.018949381538148305
-0.01648342842481519
-0.015168253428954961
-0.014017475306385044
-0.012537903432870229
-0.014675062805132838
-0.011058331557506407
-0.013359887807273055
-0.01500385655437031
-0.009907553430941712
-0.012209109682949346
-0.01204471280795466
-0.012702300307796413
-0.011880315932937105
-0.015168253428954961
-0.009414362804927148
-0.009085569054135947
-0.011222728432638288
-0.014017475306385044
-0.0108939346823516
-0.006784012796020651
-0.010729537807173922
-0.00809918780121062
-0.01007195030623402
-0.006455219044492491
-0.007770394050051414
-0.008921172178705875
-0.008592378427776784
-0.007934790925642525
-0.008756775303252834
-0.009085569054135947
-0.009907553430941712
-0.011551522182833437
-0.009414362804927148
-0.011551522182833437
-0.01204471280795466
-0.010400744056749803
-0.012373506557921202
-0.014510665930480005
-0.011715919057896707
-0.011058331557506407
-0.008921172178705875
-0.010400744056749803
-0.006126425292871961
-0.01352428468208522
-0.010236347181503375
-0.010729537807173922
-0.011058331557506407
-0.011058331557506407
-0.01204471280795466
-0.012209109682949346
-0.012209109682949346
-0.009085569054135947
-0.01204471280795466
-0.009743156555626478
-0.011715919057896707
-0.01566144405257268
-0.009743156555626478
-0.014510665930480005
-0.009414362804927148
-0.01631903155041202
-0.014510665930480005
-0.010565140931973319
-0.010729537807173922
-0.008756775303252834
-0.009414362804927148
-0.006455219044492491
0.00028505288227600317
-0.0010301221308972944
0.007682912359377236
-0.00037253462449755165
-0.004975647161471745
-0.009414362804927148
-0.010565140931973319
-0.014675062805132838
-0.016812222173553562
-0.01533265030351691
-0.01500385655437031
-0.01631903155041202
-0.015168253428954961
-0.009414362804927148
-0.015990237801537716
-0.009907553430941712
-0.014510665930480005
-0.009907553430941712
-0.01204471280795466
-0.009743156555626478
-0.008263584676755698
-0.014675062805132838
-0.01533265030351691
-0.009414362804927148
-0.011222728432638288
-0.011222728432638288
-0.008263584676755698
-0.006455219044492491
-0.0108939346823516
-0.010565140931973319
-0.010400744056749803
-0.00744160029880004
-0.013853078431641214
-0.013195490932438103
-0.00957875968028829
-0.008592378427776784
-0.008427981552277738
-0.012537903432870229
-0.008756775303252834
-0.0053044409134160656
-0.011551522182833437
-0.012702300307796413
-0.011551522182833437
-0.01204471280795466
-0.012209109682949346
-0.01204471280795466
-0.013195490932438103
-0.012373506557921202
-0.007605997174437246
-0.006619615920268107
-0.010400744056749803
-0.009907553430941712
-0.009907553430941712
-0.010400744056749803
-0.010729537807173922
-0.011058331557506407
-0.011880315932937105
-0.01204471280795466
-0.01434626905580444
-0.01204471280795466
-0.01204471280795466
-0.009249965929543025
-0.011387125307747312
-0.011715919057896707
-0.011880315932937105
-0.011880315932937105
-0.0108939346823516
-0.009249965929543025
-0.013359887807273055
-0.013195490932438103
-0.014675062805132838
-0.013853078431641214
-0.008756775303252834
-0.0053044409134160656
0.0012714341431382392
0.00275100603601397
0.002915402913117572
0.0032441966673952966
-0.00020813774783921823
-0.00727720342313979
-0.00727720342313979
-0.011387125307747312
-0.013688681556874596
-0.014181872181106114
-0.01533265030351691
-0.01500385655437031
-0.013359887807273055
-0.012537903432870229
-0.01549704717805614
-0.011880315932937105
-0.00957875968028829
-0.0108939346823516
-0.00809918780121062
-0.015990237801537716
-0.011387125307747312
-0.012209109682949346
-0.011880315932937105
-0.011880315932937105
-0.011551522182833437
-0.011551522182833437
-0.013688681556874596
-0.011222728432638288
-0.0108939346823516
-0.013853078431641214
-0.009249965929543025
-0.010236347181503375
-0.010236347181503375
-0.013195490932438103
-0.009249965929543025
-0.011222728432638288
-0.008756775303252834
-0.008427981552277738
-0.005797631541158976
-0.013195490932438103
-0.010729537807173922
-0.00957875968028829
-0.012209109682949346
-0.011387125307747312
-0.011880315932937105
-0.012537903432870229
-0.012373506557921202
-0.010729537807173922
-0.015168253428954961
-0.011222728432638288
-0.014181872181106114
-0.010729537807173922
-0.014181872181106114
-0.01007195030623402
-0.010236347181503375
-0.0108939346823516
-0.010565140931973319
-0.011880315932937105
-0.012209109682949346
-0.01204471280795466
-0.01352428468208522
-0.01483945967976294
-0.011058331557506407
-0.01204471280795466
-0.015825840927066542
-0.00957875968028829
-0.012209109682949346
-0.011715919057896707
-0.012209109682949346
-0.013688681556874596
-0.01483945967976294
-0.015168253428954961
-0.011715919057896707
-0.008592378427776784
-0.005633234665267807
-0.00300288464785832
-4.3740871157528505e-05
-0.0010301221308972944
0.0024222122818772646
-0.0031672815241204563
-0.0005369315011325149
-0.007605997174437246
-0.011058331557506407
-0.013853078431641214
-0.01714101592220138
-0.016812222173553562
-0.01500385655437031
-0.013359887807273055
-0.012537903432870229
-0.012702300307796413
-0.01697661904788879
-0.0108939346823516
-0.0161546346759862
-0.011551522182833437
-0.012209109682949346
-0.01204471280795466
-0.010565140931973319
-0.013195490932438103
-0.011551522182833437
-0.011551522182833437
-0.01549704717805614
-0.011058331557506407
-0.011222728432638288
-0.006948409671750096
-0.012702300307796413
-0.010565140931973319
-0.010236347181503375
-0.009743156555626478
-0.005962028417027018
-0.008263584676755698
-0.010565140931973319
-0.008592378427776784
-0.006619615920268107
-0.006290822168693776
-0.007934790925642525
-0.009249965929543025
-0.010565140931973319
-0.007112806547456475
-0.011715919057896707
-0.012373506557921202
-0.012537903432870229
-0.013359887807273055
-0.012209109682949346
-0.008263584676755698
-0.013359887807273055
-0.006455219044492491
-0.013853078431641214
-0.010236347181503375
-0.009907553430941712
-0.010236347181503375
-0.0108939346823516
-0.011222728432638288
-0.011222728432638288
-0.015168253428954961
-0.011715919057896707
-0.008921172178705875
-0.012373506557921202
-0.01204471280795466
-0.01204471280795466
-0.0161546346759862
-0.011880315932937105
-0.011715919057896707
-0.010729537807173922
-0.012373506557921202
-0.013688681556874596
-0.01483945967976294
-0.011222728432638288
-0.010400744056749803
-0.012866697182699796
-0.005633234665267807
0.0001206560055475453
-4.3740871157528505e-05
0.0011070372662693173
0.0032441966673952966
-0.0007013283777441148
-0.003824869028936681
-0.00744160029880004
-0.011058331557506407
-0.011387125307747312
-0.015825840927066542
-0.013359887807273055
-0.015168253428954961
-0.013359887807273055
-0.012537903432870229
-0.012866697182699796
-0.012209109682949346
-0.012537903432870229
-0.00809918780121062
-0.01566144405257268
-0.012209109682949346
-0.00957875968028829
-0.01204471280795466
-0.011880315932937105
-0.012702300307796413
-0.0108939346823516
-0.015168253428954961
-0.011222728432638288
-0.011222728432638288
-0.011058331557506407
-0.008921172178705875
-0.010729537807173922
-0.014017475306385044
-0.010236347181503375
-0.013688681556874596
-0.011715919057896707
-0.008427981552277738
-0.008921172178705875
-0.011058331557506407
-0.008592378427776784
-0.009085569054135947
-0.009085569054135947
-0.009743156555626478
-0.010565140931973319
-0.008263584676755698
-0.01204471280795466
-0.012537903432870229
-0.011222728432638288
-0.012373506557921202
-0.011387125307747312
-0.011387125307747312
-0.011058331557506407
-0.00809918780121062
-0.011715919057896707
-0.010236347181503375
-0.010565140931973319
-0.011222728432638288
-0.011551522182833437
-0.012209109682949346
-0.012373506557921202
-0.012209109682949346
-0.009249965929543025
-0.012209109682949346
-0.01204471280795466
-0.01204471280795466
-0.01566144405257268
-0.012209109682949346
-0.01204471280795466
-0.011880315932937105
-0.0166478252991957
-0.013688681556874596
-0.018291794041756473
-0.012866697182699796
-0.011715919057896707
-0.006455219044492491
-0.008592378427776784
-0.00037253462449755165
-0.00020813774783921823
0.00275100603601397
0.00275100603601397
-0.0033316784003593614
-0.003824869028936681
-0.007770394050051414
-0.01500385655437031
-0.014675062805132838
-0.01697661904788879
-0.015990237801537716
-0.01500385655437031
-0.013359887807273055
-0.009414362804927148
-0.01533265030351691
-0.015825840927066542
-0.012537903432870229
-0.01631903155041202
-0.009414362804927148
-0.012373506557921202
-0.011880315932937105
-0.01352428468208522
-0.013359887807273055
-0.007605997174437246
-0.011387125307747312
-0.011222728432638288
-0.011387125307747312
-0.011058331557506407
-0.01500385655437031
-0.010565140931973319
-0.008592378427776784
-0.013853078431641214
-0.00727720342313979
-0.01303109405758035
-0.012373506557921202
-0.008756775303252834
-0.008592378427776784
-0.008263584676755698
-0.012702300307796413
-0.006784012796020651
-0.008921172178705875
-0.009907553430941712
-0.010565140931973319
-0.011222728432638288
-0.011715919057896707
-0.01483945967976294
-0.012702300307796413
-0.009743156555626478
-0.014181872181106114
-0.007112806547456475
-0.010565140931973319
-0.011551522182833437
-0.01007195030623402
-0.010729537807173922
-0.009907553430941712
-0.01352428468208522
-0.011222728432638288
-0.011715919057896707
-0.011880315932937105
-0.01204471280795466
-0.013195490932438103
-0.010236347181503375
-0.01434626905580444
-0.011715919057896707
-0.011387125307747312
-0.008592378427776784
-0.011715919057896707
-0.013195490932438103
-0.009907553430941712
-0.013359887807273055
-0.01352428468208522
-0.014675062805132838
-0.011551522182833437
-0.009743156555626478
-0.00546883778935351
-0.0026740908952642833
-0.0025096940189323833
0.00275100603601397
0.0034085935445694396
0.0017646247738856424
-0.003824869028936681
-0.00744160029880004
-0.008263584676755698
-0.013853078431641214
-0.01697661904788879
-0.0166478252991957
-0.01352428468208522
-0.01500385655437031
-0.01566144405257268
-0.0108939346823516
-0.012537903432870229
-0.012373506557921202
-0.011387125307747312
-0.015825840927066542
-0.010400744056749803
-0.011880315932937105
-0.011387125307747312
-0.01303109405758035
-0.009085569054135947
-0.01352428468208522
-0.011222728432638288
-0.00809918780121062
-0.011058331557506407
-0.0108939346823516
-0.011222728432638288
-0.011715919057896707
-0.010400744056749803
-0.01204471280795466
-0.009743156555626478
-0.011880315932937105
-0.009085569054135947
-0.009907553430941712
-0.011222728432638288
-0.008263584676755698
-0.008921172178705875
-0.009414362804927148
-0.006784012796020651
-0.010565140931973319
-0.011715919057896707
-0.01007195030623402
-0.015168253428954961
-0.012209109682949346
-0.012537903432870229
-0.00727720342313979
-0.011222728432638288
-0.0108939346823516
-0.010236347181503375
-0.010565140931973319
-0.010236347181503375
-0.010400744056749803
-0.0108939346823516
-0.011387125307747312
-0.012209109682949346
-0.01204471280795466
-0.008921172178705875
-0.012209109682949346
-0.011880315932937105
-0.011880315932937105
-0.012866697182699796
-0.01434626905580444
-0.01648342842481519
-0.013359887807273055
-0.010236347181503375
-0.0026740908952642833
-0.006290822168693776
-0.0018521065133720177
0.0012714341431382392
0.004230577930793254
0.0019290216508483435
0.0012714341431382392
-0.003989265905082702
-0.009414362804927148
-0.012702300307796413
-0.018620587789997506
-0.017798603419225595
-0.01566144405257268
-0.01730541279649135
-0.012537903432870229
-0.010729537807173922
-0.012537903432870229
-0.008756775303252834
-0.012702300307796413
-0.012373506557921202
-0.013359887807273055
-0.012209109682949346
-0.012537903432870229
-0.015825840927066542
-0.007770394050051414
-0.011551522182833437
-0.011387125307747312
-0.011551522182833437
-0.01434626905580444
-0.011222728432638288
-0.011880315932937105
-0.010729537807173922
-0.010565140931973319
-0.006455219044492491
-0.01007195030623402
-0.007934790925642525
-0.009085569054135947
-0.008921172178705875
-0.011222728432638288
-0.008427981552277738
-0.005797631541158976
-0.009085569054135947
-0.007934790925642525
-0.010236347181503375
-0.011222728432638288
-0.012209109682949346
-0.01648342842481519
-0.012373506557921202
-0.012373506557921202
-0.012537903432870229
-0.011551522182833437
-0.011058331557506407
-0.008263584676755698
-0.012702300307796413
-0.010236347181503375
-0.014181872181106114
-0.010565140931973319
-0.01549704717805614
-0.011715919057896707
-0.012209109682949346
-0.011387125307747312
-0.012209109682949346
-0.01483945967976294
-0.01352428468208522
-0.01204471280795466
-0.011880315932937105
-0.011715919057896707
-0.011551522182833437
-0.013688681556874596
-0.011715919057896707
-0.013853078431641214
-0.014181872181106114
-0.01533265030351691
-0.014510665930480005
-0.010236347181503375
-0.00744160029880004
-0.006455219044492491
-0.0015233127604520752
0.0001206560055475453
0.003901784176233082
0.0034085935445694396
-0.004646853409434784
-0.005633234665267807
-0.011387125307747312
-0.012373506557921202
-0.01549704717805614
-0.02141533464640885
-0.015990237801537716
-0.01697661904788879
-0.012702300307796413
-0.012537903432870229
-0.012866697182699796
-0.009743156555626478
-0.012866697182699796
-0.012373506557921202
-0.00957875968028829
-0.011551522182833437
-0.0166478252991957
-0.012209109682949346
-0.01204471280795466
-0.011715919057896707
-0.011551522182833437
-0.011551522182833437
-0.011387125307747312
-0.011715919057896707
-0.008427981552277738
-0.009085569054135947
-0.010729537807173922
-0.010400744056749803
-0.01352428468208522
-0.01007195030623402
-0.013359887807273055
-0.008921172178705875
-0.008263584676755698
-0.004318059657305119
-0.00727720342313979
-0.009414362804927148
-0.009414362804927148
-0.010729537807173922
-0.011387125307747312
-0.01204471280795466
-0.012537903432870229
-0.012702300307796413
-0.012537903432870229
-0.008756775303252834
-0.008427981552277738
-0.011058331557506407
-0.010400744056749803
-0.013195490932438103
-0.009085569054135947
-0.006784012796020651
-0.012702300307796413
-0.011058331557506407
-0.010236347181503375
-0.012373506557921202
-0.010400744056749803
-0.01500385655437031
-0.012537903432870229
-0.012373506557921202
-0.012209109682949346
-0.011880315932937105
-0.01007195030623402
-0.01204471280795466
-0.01204471280795466
-0.011715919057896707
-0.01303109405758035
-0.013853078431641214
-0.01549704717805614
-0.013359887807273055
-0.010236347181503375
-0.00744160029880004
-0.004482456533381543
0.0022578154048441545
0.0011070372662693173
-0.0005369315011325149
0.0012714341431382392
-0.002345297142577217
-0.008592378427776784
-0.009249965929543025
-0.012537903432870229
-0.01566144405257268
-0.01533265030351691
-0.015825840927066542
-0.01697661904788879
-0.01204471280795466
-0.012537903432870229
-0.012866697182699796
-0.013853078431641214
-0.012373506557921202
-0.01500385655437031
-0.012209109682949346
-0.015825840927066542
-0.014510665930480005
-0.011880315932937105
-0.011058331557506407
-0.013688681556874596
-0.011222728432638288
-0.011387125307747312
-0.009249965929543025
-0.011058331557506407
-0.010729537807173922
-0.010565140931973319
-0.010729537807173922
-0.010400744056749803
-0.01007195030623402
-0.0053044409134160656
-0.009414362804927148
-0.008921172178705875
-0.008427981552277738
-0.008592378427776784
-0.010236347181503375
-0.01204471280795466
-0.00809918780121062
-0.008263584676755698
-0.008592378427776784
-0.01434626905580444
-0.01631903155041202
-0.012537903432870229
-0.011058331557506407
-0.012209109682949346
-0.014181872181106114
-0.011058331557506407
-0.009249965929543025
-0.010236347181503375
-0.010400744056749803
-0.0108939346823516
-0.008263584676755698
-0.014181872181106114
-0.011551522182833437
-0.012537903432870229
-0.012373506557921202
-0.012373506557921202
-0.011551522182833437
-0.012537903432870229
-0.009249965929543025
-0.01204471280795466
-0.011715919057896707
-0.007770394050051414
-0.008756775303252834
-0.01204471280795466
-0.013195490932438103
-0.01352428468208522
-0.01566144405257268
-0.010565140931973319
-0.012373506557921202
-0.00744160029880004
-0.004318059657305119
-0.0031672815241204563
-0.0018521065133720177
0.0022578154048441545
0.0011070372662693173
-0.0025096940189323833
-0.005797631541158976
-0.009249965929543025
-0.012702300307796413
-0.015168253428954961
-0.017469809670758715
-0.01763420654500346
-0.014181872181106114
-0.014675062805132838
-0.012537903432870229
-0.012702300307796413
-0.012537903432870229
-0.011222728432638288
-0.015168253428954961
-0.012209109682949346
-0.012209109682949346
-0.012373506557921202
-0.015990237801537716
-0.008592378427776784
-0.014017475306385044
-0.01566144405257268
-0.01204471280795466
-0.011058331557506407
-0.010729537807173922
-0.0108939346823516
-0.009085569054135947
-0.008427981552277738
-0.008263584676755698
-0.006126425292871961
-0.007112806547456475
-0.009414362804927148
-0.00546883778935351
-0.008921172178705875
-0.011880315932937105
-0.008921172178705875
-0.009085569054135947
-0.009414362804927148
-0.010729537807173922
-0.011387125307747312
-0.011880315932937105
-0.012209109682949346
-0.012209109682949346
-0.012373506557921202
-0.014510665930480005
-0.011551522182833437
-0.0108939346823516
-0.007112806547456475
-0.012209109682949346
-0.011551522182833437
-0.00727720342313979
-0.010729537807173922
-0.011058331557506407
-0.011880315932937105
-0.012537903432870229
-0.012866697182699796
-0.012209109682949346
-0.012373506557921202
-0.014017475306385044
-0.01204471280795466
-0.01204471280795466
-0.01204471280795466
-0.011222728432638288
-0.01204471280795466
-0.011058331557506407
-0.01303109405758035
-0.013359887807273055
-0.0161546346759862
-0.015168253428954961
-0.007934790925642525
-0.00744160029880004
-0.004482456533381543
-0.0016877096369236969
0.003737387298988322
0.003901784176233082
0.001600227896946388
-0.0025096940189323833
-0.006126425292871961
-0.00957875968028829
-0.010400744056749803
-0.012209109682949346
-0.01533265030351691
-0.0161546346759862
-0.014510665930480005
-0.011715919057896707
-0.014017475306385044
-0.012373506557921202
-0.012537903432870229
-0.015825840927066542
-0.010236347181503375
-0.012209109682949346
-0.01549704717805614
-0.009414362804927148
-0.01204471280795466
-0.01204471280795466
-0.011715919057896707
-0.012537903432870229
-0.010236347181503375
-0.007770394050051414
-0.012866697182699796
-0.0108939346823516
-0.010565140931973319
-0.010565140931973319
-0.010400744056749803
-0.006784012796020651
-0.011222728432638288
-0.009085569054135947
-0.007605997174437246
-0.008592378427776784
-0.008756775303252834
-0.012373506557921202
-0.005962028417027018
-0.011387125307747312
-0.014181872181106114
-0.01007195030623402
-0.011715919057896707
-0.01500385655437031
-0.012702300307796413
-0.012373506557921202
-0.012373506557921202
-0.007934790925642525
-0.00744160029880004
-0.0108939346823516
-0.01434626905580444
-0.007934790925642525
-0.007934790925642525
-0.010729537807173922
-0.008263584676755698
-0.012866697182699796
-0.011387125307747312
-0.012209109682949346
-0.01204471280795466
-0.01500385655437031
-0.01204471280795466
-0.011880315932937105
-0.009249965929543025
-0.00809918780121062
-0.011880315932937105
-0.012373506557921202
-0.008921172178705875
-0.01007195030623402
-0.01434626905580444
-0.01549704717805614
-0.01631903155041202
-0.010400744056749803
-0.003824869028936681
-0.00744160029880004
-0.0015233127604520752
-0.0016877096369236969
0.004066181053501386
0.005545752949977133
-0.0025096940189323833
-0.005797631541158976
-0.0051400440374554865
-0.012866697182699796
-0.018784984664084195
-0.01763420654500346
-0.013853078431641214
-0.014181872181106114
-0.012702300307796413
-0.014675062805132838
-0.012537903432870229
-0.012866697182699796
-0.01483945967976294
-0.008756775303252834
-0.012373506557921202
-0.012373506557921202
-0.0166478252991957
-0.013853078431641214
-0.011880315932937105
-0.015990237801537716
-0.008921172178705875
-0.011551522182833437
-0.013195490932438103
-0.011058331557506407
-0.0108939346823516
-0.01303109405758035
-0.010400744056749803
-0.006619615920268107
-0.009907553430941712
-0.00957875968028829
-0.0051400440374554865
-0.009085569054135947
-0.011880315932937105
-0.006455219044492491
-0.011222728432638288
-0.009085569054135947
-0.00957875968028829
-0.010400744056749803
-0.011222728432638288
-0.01204471280795466
-0.012373506557921202
-0.012537903432870229
-0.012373506557921202
-0.012209109682949346
-0.011880315932937105
-0.0108939346823516
-0.010565140931973319
-0.006619615920268107
-0.010565140931973319
-0.007770394050051414
-0.010729537807173922
-0.014017475306385044
-0.011551522182833437
-0.009743156555626478
-0.01204471280795466
-0.012373506557921202
-0.013195490932438103
-0.012373506557921202
-0.011880315932937105
-0.011880315932937105
-0.01204471280795466
-0.012209109682949346
-0.011880315932937105
-0.008921172178705875
-0.01303109405758035
-0.01007195030623402
-0.01566144405257268
-0.013853078431641214
-0.010565140931973319
-0.00744160029880004
-0.004482456533381543
-0.004975647161471745
0.0011070372662693173
0.004066181053501386
0.0012714341431382392
-0.004153662781205512
-0.005797631541158976
-0.009085569054135947
-0.012537903432870229
-0.01566144405257268
-0.020264556529850306
-0.014510665930480005
-0.01763420654500346
-0.01714101592220138
-0.012702300307796413
-0.014675062805132838
-0.012209109682949346
-0.01352428468208522
-0.011387125307747312
-0.01204471280795466
-0.01204471280795466
-0.01500385655437031
-0.014510665930480005
-0.011715919057896707
-0.011715919057896707
-0.011551522182833437
-0.01007195030623402
-0.009085569054135947
-0.01483945967976294
-0.010729537807173922
-0.010565140931973319
-0.010565140931973319
-0.010236347181503375
-0.01007195030623402
-0.00957875968028829
-0.009085569054135947
-0.01204471280795466
-0.008427981552277738
-0.004482456533381543
-0.006784012796020651
-0.009085569054135947
-0.0051400440374554865
-0.012866697182699796
-0.011058331557506407
-0.01204471280795466
-0.01566144405257268
-0.012702300307796413
-0.012209109682949346
-0.010565140931973319
-0.011551522182833437
